t_us,adc,leadsoff
428280,0,0
430280,0,0
432280,0,0
434288,0,0
436288,0,0
438288,0,0
440288,0,0
442280,0,0
444280,0,0
446280,0,0
448280,0,0
450280,0,0
452280,0,0
454280,0,0
456280,0,0
458280,0,0
460280,0,0
462280,0,0
464280,0,0
466280,0,0
468280,0,0
470280,0,0
472280,0,0
474280,0,0
476288,0,0
478288,0,0
480288,0,0
482288,0,0
484280,0,0
486280,0,0
488280,0,0
490280,0,0
492280,0,0
494280,0,0
496280,0,0
498280,0,0
500280,0,0
502280,0,0
504280,0,0
506280,0,0
508280,0,0
510280,0,0
512288,0,0
514288,0,0
516288,0,0
518280,0,0
520288,0,0
522288,0,0
524280,0,0
526280,0,0
528280,0,0
530280,0,0
532280,0,0
534280,0,0
536280,0,0
538280,0,0
540280,0,0
542280,0,0
544280,0,0
546280,0,0
548280,0,0
550280,0,0
552288,0,0
554280,0,0
556280,0,0
558280,0,0
560280,0,0
562288,0,0
564288,0,0
566288,0,0
568288,0,0
570280,0,0
572280,0,0
574288,0,0
576280,0,0
578280,0,0
580280,0,0
582280,0,0
584280,0,0
586280,0,0
588280,0,0
590280,0,0
592280,0,0
594280,0,0
596280,0,0
598280,0,0
600288,0,0
602280,0,0
604288,0,0
606288,0,0
608280,0,0
610288,0,0
612280,0,0
614288,0,0
616288,0,0
618280,0,0
620280,0,0
622280,0,0
624280,0,0
626280,0,0
628280,0,0
630280,0,0
632288,0,0
634288,0,0
636280,0,0
638280,0,0
640288,0,0
642288,0,0
644280,0,0
646280,0,0
648288,0,0
650288,0,0
652292,0,0
654280,0,0
656280,0,0
658280,0,0
660280,0,0
662280,0,0
664280,0,0
666280,0,0
668280,0,0
670280,0,0
672280,0,0
674280,0,0
676280,0,0
678280,0,0
680280,0,0
682280,0,0
684280,0,0
686280,0,0
688280,0,0
690288,0,0
692288,0,0
694288,0,0
696288,0,0
698280,0,0
700280,0,0
702280,0,0
704280,0,0
706280,0,0
708280,0,0
710280,0,0
712288,0,0
714280,0,0
716280,0,0
718288,0,0
720280,0,0
722280,0,0
724280,0,0
726280,0,0
728280,0,0
730280,0,0
732288,0,0
734288,0,0
736280,0,0
738288,0,0
740280,0,0
742280,0,0
744280,0,0
746280,0,0
748280,0,0
750280,0,0
752280,0,0
754288,0,0
756280,0,0
758280,0,0
760280,0,0
762288,0,0
764280,0,0
766280,0,0
768288,0,0
770288,0,0
772280,0,0
774280,0,0
776280,0,0
778280,0,0
780292,0,0
782280,0,0
784280,0,0
786280,0,0
788280,0,0
790280,0,0
792288,0,0
794280,0,0
796280,0,0
798280,0,0
800288,0,0
802280,0,0
804280,0,0
806280,0,0
808288,0,0
810280,0,0
812280,0,0
814280,0,0
816280,0,0
818280,0,0
820280,0,0
822288,0,0
824288,0,0
826280,0,0
828280,0,0
830280,0,0
832280,0,0
834280,0,0
836280,0,0
838280,0,0
840280,0,0
842280,0,0
844280,0,0
846280,0,0
848280,0,0
850280,0,0
852280,0,0
854280,0,0
856280,0,0
858280,0,0
860288,0,0
862288,0,0
864288,0,0
866288,0,0
868280,0,0
870280,0,0
872288,0,0
874280,0,0
876280,0,0
878280,0,0
880280,0,0
882280,0,0
884280,0,0
886280,0,0
888280,0,0
890280,0,0
892280,0,0
894280,0,0
896288,0,0
898280,0,0
900280,0,0
902280,0,0
904288,0,0
906288,0,0
908292,0,0
910280,0,0
912280,0,0
914280,0,0
916280,0,0
918280,0,0
920288,0,0
922280,0,0
924280,0,0
926280,0,0
928280,0,0
930280,0,0
932280,0,0
934280,0,0
936288,0,0
938280,0,0
940280,0,0
942280,0,0
944280,0,0
946280,0,0
948280,0,0
950280,0,0
952280,0,0
954288,0,0
956280,0,0
958288,0,0
960288,0,0
962280,0,0
964280,0,0
966280,0,0
968280,0,0
970280,0,0
972280,0,0
974288,0,0
976280,0,0
978280,0,0
980280,0,0
982288,0,0
984280,0,0
986280,0,0
988288,0,0
990288,0,0
992288,0,0
994288,0,0
996280,0,0
998280,0,0
1000288,0,0
1002280,0,0
1004280,0,0
1006280,0,0
1008280,0,0
1010280,0,0
1012288,0,0
1014280,0,0
1016288,0,0
1018280,0,0
1020288,0,0
1022280,0,0
1024288,0,0
1026288,0,0
1028288,0,0
1030280,0,0
1032288,0,0
1034288,0,0
1036292,0,0
1038280,0,0
1040280,0,0
1042280,0,0
1044280,0,0
1046280,0,0
1048280,0,0
1050280,0,0
1052280,0,0
1054280,0,0
1056280,0,0
1058280,0,0
1060280,0,0
1062280,0,0
1064288,0,0
1066280,0,0
1068280,0,0
1070280,0,0
1072280,0,0
1074288,0,0
1076288,0,0
1078288,0,0
1080288,0,0
1082280,0,0
1084280,0,0
1086280,0,0
1088280,0,0
1090280,0,0
1092280,0,0
1094280,0,0
1096288,0,0
1098280,0,0
1100280,0,0
1102288,0,0
1104280,0,0
1106280,0,0
1108280,0,0
1110288,0,0
1112280,0,0
1114288,0,0
1116288,0,0
1118280,0,0
1120280,0,0
1122280,0,0
1124288,0,0
1126280,0,0
1128288,0,0
1130280,0,0
1132280,0,0
1134280,0,0
1136288,0,0
1138280,0,0
1140280,0,0
1142280,0,0
1144288,0,0
1146280,0,0
1148288,0,0
1150280,0,0
1152288,0,0
1154280,0,0
1156280,0,0
1158280,0,0
1160280,0,0
1162288,0,0
1164292,0,0
1166280,0,0
1168280,14,0
1170280,43,0
1172280,68,0
1174288,89,0
1176288,105,0
1178288,119,0
1180280,134,0
1182288,151,0
1184288,165,0
1186280,176,0
1188288,181,0
1190280,180,0
1192288,177,0
1194280,178,0
1196288,184,0
1198280,197,0
1200288,213,0
1202288,226,0
1204280,232,0
1206280,232,0
1208280,229,0
1210288,226,0
1212280,229,0
1214288,240,0
1216288,255,0
1218280,271,0
1220288,282,0
1222280,287,0
1224288,288,0
1226280,289,0
1228288,295,0
1230288,307,0
1232280,322,0
1234280,339,0
1236280,352,0
1238288,359,0
1240288,361,0
1242280,361,0
1244288,364,0
1246288,374,0
1248280,389,0
1250280,406,0
1252288,420,0
1254280,428,0
1256288,430,0
1258280,428,0
1260288,428,0
1262280,433,0
1264288,444,0
1266288,459,0
1268288,472,0
1270288,480,0
1272288,480,0
1274288,474,0
1276288,468,0
1278288,467,0
1280288,473,0
1282280,483,0
1284280,495,0
1286280,501,0
1288280,502,0
1290280,498,0
1292292,491,0
1294280,488,0
1296280,490,0
1298280,498,0
1300280,507,0
1302288,514,0
1304288,514,0
1306288,509,0
1308280,500,0
1310288,492,0
1312288,490,0
1314280,495,0
1316280,503,0
1318280,511,0
1320288,512,0
1322280,507,0
1324280,496,0
1326280,485,0
1328280,479,0
1330280,478,0
1332280,481,0
1334288,485,0
1336288,484,0
1338280,477,0
1340280,465,0
1342288,454,0
1344280,445,0
1346280,440,0
1348280,439,0
1350280,438,0
1352288,434,0
1354280,425,0
1356280,410,0
1358288,394,0
1360280,382,0
1362280,375,0
1364280,375,0
1366280,376,0
1368288,375,0
1370280,368,0
1372288,355,0
1374288,338,0
1376280,322,0
1378288,310,0
1380288,305,0
1382280,305,0
1384288,304,0
1386280,300,0
1388288,288,0
1390280,271,0
1392288,252,0
1394288,236,0
1396280,226,0
1398288,220,0
1400280,214,0
1402288,206,0
1404280,190,0
1406288,168,0
1408288,144,0
1410280,121,0
1412288,104,0
1414280,92,0
1416280,84,0
1418280,75,0
1420280,61,0
1422288,42,0
1424280,21,0
1426280,1,0
1428280,0,0
1430288,0,0
1432288,0,0
1434288,0,0
1436280,0,0
1438280,0,0
1440288,0,0
1442280,0,0
1444280,0,0
1446280,0,0
1448288,0,0
1450280,0,0
1452280,0,0
1454280,0,0
1456280,0,0
1458280,0,0
1460280,0,0
1462280,0,0
1464280,0,0
1466288,0,0
1468280,0,0
1470288,0,0
1472288,0,0
1474280,0,0
1476288,0,0
1478280,0,0
1480288,0,0
1482280,0,0
1484280,0,0
1486288,0,0
1488280,0,0
1490280,0,0
1492280,0,0
1494288,0,0
1496280,0,0
1498280,0,0
1500288,0,0
1502288,0,0
1504280,0,0
1506280,0,0
1508288,0,0
1510280,0,0
1512288,0,0
1514280,0,0
1516288,0,0
1518280,0,0
1520288,0,0
1522280,0,0
1524288,0,0
1526280,0,0
1528288,0,0
1530280,0,0
1532288,0,0
1534288,0,0
1536288,0,0
1538280,0,0
1540280,0,0
1542280,0,0
1544280,0,0
1546280,0,0
1548280,0,0
1550288,0,0
1552280,0,0
1554288,0,0
1556280,0,0
1558288,0,0
1560280,0,0
1562288,0,0
1564280,0,0
1566280,0,0
1568288,0,0
1570280,0,0
1572288,0,0
1574280,0,0
1576288,0,0
1578280,0,0
1580288,0,0
1582280,0,0
1584288,0,0
1586280,0,0
1588280,0,0
1590280,0,0
1592280,0,0
1594288,0,0
1596280,0,0
1598288,0,0
1600288,0,0
1602280,0,0
1604280,0,0
1606280,0,0
1608288,0,0
1610280,0,0
1612280,0,0
1614288,0,0
1616280,0,0
1618280,0,0
1620280,0,0
1622288,0,0
1624280,0,0
1626288,0,0
1628288,0,0
1630288,0,0
1632280,0,0
1634280,0,0
1636288,0,0
1638280,0,0
1640288,0,0
1642280,0,0
1644280,0,0
1646280,0,0
1648280,0,0
1650280,0,0
1652280,0,0
1654280,0,0
1656280,0,0
1658280,0,0
1660280,0,0
1662280,0,0
1664288,0,0
1666288,0,0
1668280,0,0
1670280,0,0
1672280,0,0
1674288,0,0
1676292,0,0
1678280,0,0
1680280,0,0
1682280,0,0
1684280,0,0
1686280,0,0
1688280,0,0
1690280,0,0
1692280,0,0
1694280,0,0
1696280,0,0
1698280,0,0
1700280,0,0
1702280,0,0
1704288,0,0
1706280,0,0
1708280,0,0
1710280,0,0
1712280,0,0
1714280,0,0
1716280,0,0
1718280,0,0
1720280,0,0
1722288,0,0
1724280,0,0
1726280,0,0
1728280,0,0
1730280,0,0
1732280,0,0
1734280,0,0
1736288,0,0
1738280,0,0
1740280,0,0
1742288,0,0
1744280,0,0
1746280,0,0
1748280,0,0
1750288,0,0
1752280,0,0
1754280,0,0
1756288,0,0
1758288,0,0
1760280,0,0
1762288,0,0
1764280,0,0
1766280,0,0
1768288,0,0
1770280,0,0
1772280,0,0
1774280,0,0
1776280,0,0
1778288,0,0
1780280,0,0
1782288,0,0
1784280,0,0
1786288,0,0
1788280,0,0
1790288,0,0
1792288,0,0
1794280,0,0
1796280,0,0
1798280,0,0
1800280,0,0
1802280,0,0
1804292,0,0
1806280,0,0
1808280,0,0
1810280,0,0
1812280,0,0
1814280,0,0
1816288,0,0
1818280,0,0
1820280,0,0
1822280,0,0
1824288,6,0
1826280,23,0
1828280,48,0
1830280,77,0
1832288,104,0
1834280,125,0
1836288,137,0
1838288,143,0
1840288,145,0
1842280,151,0
1844280,164,0
1846280,182,0
1848280,203,0
1850280,222,0
1852280,236,0
1854288,244,0
1856280,249,0
1858280,255,0
1860288,266,0
1862280,283,0
1864288,304,0
1866280,321,0
1868288,335,0
1870288,342,0
1872280,345,0
1874288,348,0
1876280,354,0
1878288,366,0
1880288,385,0
1882288,403,0
1884288,417,0
1886288,424,0
1888280,427,0
1890280,427,0
1892288,429,0
1894280,438,0
1896288,453,0
1898280,470,0
1900288,485,0
1902280,494,0
1904288,496,0
1906288,495,0
1908288,495,0
1910288,500,0
1912288,511,0
1914288,523,0
1916288,535,0
1918288,541,0
1920280,542,0
1922280,540,0
1924288,538,0
1926288,540,0
1928280,547,0
1930280,558,0
1932280,569,0
1934288,575,0
1936288,575,0
1938280,570,0
1940288,562,0
1942288,558,0
1944288,558,0
1946288,564,0
1948280,572,0
1950288,577,0
1952288,577,0
1954280,570,0
1956288,560,0
1958288,551,0
1960288,548,0
1962288,549,0
1964288,555,0
1966288,561,0
1968280,563,0
1970280,559,0
1972280,551,0
1974280,545,0
1976280,541,0
1978288,543,0
1980280,549,0
1982288,555,0
1984288,558,0
1986280,555,0
1988288,550,0
1990288,545,0
1992288,546,0
1994288,553,0
1996288,567,0
1998288,581,0
2000288,591,0
2002280,594,0
2004288,593,0
2006288,591,0
2008288,592,0
2010288,599,0
2012288,611,0
2014280,626,0
2016280,640,0
2018280,649,0
2020288,651,0
2022280,648,0
2024288,647,0
2026280,650,0
2028288,660,0
2030280,675,0
2032288,690,0
2034288,700,0
2036288,703,0
2038288,702,0
2040288,701,0
2042288,704,0
2044288,713,0
2046288,722,0
2048288,725,0
2050288,725,0
2052280,725,0
2054280,725,0
2056280,724,0
2058280,725,0
2060292,725,0
2062280,726,0
2064280,727,0
2066280,727,0
2068280,727,0
2070288,727,0
2072280,727,0
2074288,727,0
2076280,727,0
2078288,728,0
2080288,728,0
2082280,728,0
2084280,728,0
2086280,728,0
2088288,728,0
2090280,728,0
2092280,728,0
2094280,728,0
2096280,728,0
2098280,729,0
2100280,728,0
2102280,728,0
2104280,728,0
2106288,728,0
2108280,728,0
2110288,728,0
2112288,728,0
2114280,728,0
2116288,728,0
2118280,728,0
2120288,728,0
2122280,728,0
2124288,728,0
2126288,728,0
2128280,729,0
2130288,729,0
2132280,729,0
2134288,729,0
2136288,729,0
2138280,729,0
2140288,729,0
2142288,729,0
2144280,729,0
2146280,729,0
2148288,729,0
2150280,729,0
2152288,730,0
2154280,730,0
2156288,730,0
2158288,730,0
2160288,730,0
2162288,730,0
2164280,730,0
2166288,730,0
2168288,730,0
2170288,730,0
2172288,730,0
2174288,730,0
2176288,730,0
2178280,730,0
2180288,731,0
2182280,730,0
2184280,731,0
2186280,731,0
2188280,731,0
2190288,731,0
2192288,731,0
2194280,731,0
2196288,731,0
2198288,731,0
2200288,731,0
2202288,731,0
2204280,731,0
2206288,731,0
2208288,731,0
2210280,731,0
2212288,731,0
2214280,731,0
2216288,731,0
2218288,731,0
2220288,731,0
2222288,731,0
2224288,731,0
2226280,731,0
2228280,731,0
2230280,731,0
2232288,731,0
2234288,731,0
2236288,731,0
2238288,731,0
2240288,731,0
2242280,731,0
2244288,731,0
2246288,731,0
2248288,731,0
2250288,731,0
2252288,731,0
2254288,731,0
2256280,731,0
2258280,732,0
2260288,732,0
2262288,731,0
2264288,732,0
2266288,732,0
2268288,731,0
2270280,732,0
2272280,731,0
2274280,732,0
2276288,731,0
2278288,732,0
2280288,732,0
2282288,731,0
2284288,732,0
2286288,731,0
2288288,732,0
2290288,732,0
2292288,732,0
2294288,732,0
2296288,731,0
2298288,732,0
2300288,732,0
2302288,732,0
2304288,732,0
2306280,732,0
2308288,732,0
2310280,732,0
2312280,732,0
2314280,732,0
2316280,732,0
2318288,732,0
2320288,732,0
2322280,732,0
2324288,732,0
2326288,732,0
2328288,731,0
2330288,732,0
2332288,732,0
2334288,732,0
2336288,732,0
2338280,731,0
2340288,732,0
2342288,732,0
2344288,732,0
2346288,732,0
2348288,732,0
2350288,732,0
2352288,732,0
2354280,732,0
2356288,732,0
2358280,732,0
2360280,732,0
2362288,732,0
2364288,732,0
2366288,732,0
2368288,732,0
2370280,732,0
2372288,732,0
2374288,732,0
2376288,732,0
2378288,732,0
2380288,732,0
2382288,732,0
2384288,732,0
2386288,732,0
2388288,732,0
2390288,732,0
2392288,732,0
2394288,732,0
2396288,732,0
2398280,732,0
2400288,732,0
2402280,732,0
2404288,732,0
2406288,732,0
2408288,732,0
2410280,732,0
2412288,732,0
2414288,732,0
2416288,732,0
2418288,732,0
2420288,732,0
2422288,732,0
2424288,732,0
2426288,732,0
2428288,732,0
2430288,732,0
2432288,732,0
2434288,732,0
2436288,732,0
2438288,732,0
2440280,732,0
2442280,732,0
2444280,732,0
2446288,732,0
2448288,732,0
2450288,732,0
2452288,732,0
2454288,732,0
2456288,732,0
2458288,732,0
2460280,732,0
2462288,732,0
2464288,732,0
2466280,732,0
2468288,732,0
2470280,732,0
2472288,732,0
2474288,732,0
2476288,732,0
2478288,732,0
2480288,732,0
2482280,732,0
2484280,732,0
2486280,732,0
2488280,732,0
2490288,732,0
2492288,732,0
2494288,732,0
2496288,732,0
2498280,732,0
2500288,731,0
2502288,732,0
2504288,732,0
2506288,732,0
2508288,732,0
2510288,732,0
2512288,732,0
2514288,732,0
2516288,732,0
2518288,732,0
2520288,732,0
2522288,732,0
2524288,732,0
2526280,732,0
2528288,732,0
2530280,732,0
2532288,732,0
2534288,732,0
2536280,732,0
2538280,732,0
2540288,732,0
2542288,732,0
2544288,732,0
2546288,732,0
2548288,732,0
2550288,732,0
2552288,732,0
2554288,732,0
2556288,732,0
2558288,732,0
2560280,732,0
2562280,732,0
2564280,732,0
2566280,732,0
2568280,732,0
2570280,732,0
2572280,732,0
2574288,732,0
2576280,732,0
2578288,732,0
2580280,732,0
2582288,732,0
2584288,732,0
2586288,732,0
2588280,732,0
2590288,732,0
2592288,732,0
2594280,732,0
2596288,732,0
2598280,732,0
2600288,732,0
2602288,732,0
2604280,732,0
2606288,732,0
2608288,732,0
2610280,732,0
2612280,732,0
2614280,732,0
2616280,732,0
2618288,732,0
2620288,732,0
2622288,732,0
2624280,732,0
2626280,732,0
2628280,732,0
2630280,732,0
2632288,732,0
2634280,732,0
2636280,732,0
2638288,732,0
2640280,732,0
2642280,732,0
2644280,732,0
2646288,732,0
2648280,732,0
2650288,732,0
2652288,732,0
2654288,732,0
2656280,732,0
2658280,732,0
2660288,732,0
2662280,732,0
2664288,732,0
2666280,732,0
2668280,732,0
2670280,732,0
2672288,732,0
2674280,732,0
2676288,732,0
2678280,732,0
2680288,732,0
2682288,732,0
2684280,732,0
2686288,732,0
2688288,732,0
2690280,732,0
2692288,732,0
2694280,732,0
2696280,732,0
2698280,732,0
2700280,732,0
2702288,732,0
2704288,732,0
2706280,732,0
2708288,732,0
2710288,732,0
2712288,732,0
2714288,732,0
2716280,732,0
2718288,732,0
2720288,732,0
2722280,732,0
2724288,732,0
2726280,732,0
2728288,732,0
2730280,732,0
2732288,732,0
2734288,732,0
2736288,732,0
2738280,732,0
2740280,732,0
2742280,732,0
2744280,732,0
2746288,732,0
2748280,732,0
2750288,732,0
2752288,732,0
2754280,732,0
2756288,732,0
2758288,732,0
2760288,732,0
2762288,732,0
2764288,732,0
2766288,732,0
2768280,732,0
2770288,732,0
2772280,732,0
2774288,732,0
2776288,732,0
2778288,732,0
2780288,732,0
2782280,732,0
2784280,732,0
2786280,732,0
2788288,732,0
2790280,732,0
2792288,732,0
2794288,732,0
2796288,732,0
2798288,732,0
2800288,732,0
2802288,732,0
2804288,732,0
2806288,732,0
2808288,732,0
2810288,732,0
2812288,732,0
2814288,732,0
2816288,732,0
2818280,732,0
2820288,732,0
2822280,732,0
2824280,732,0
2826280,732,0
2828280,732,0
2830288,732,0
2832288,731,0
2834280,732,0
2836288,732,0
2838288,732,0
2840288,731,0
2842288,732,0
2844280,732,0
2846288,731,0
2848288,732,0
2850280,732,0
2852288,732,0
2854288,732,0
2856288,732,0
2858288,732,0
2860288,732,0
2862288,732,0
2864288,732,0
2866280,732,0
2868288,732,0
2870280,732,0
2872280,732,0
2874288,732,0
2876288,732,0
2878288,732,0
2880288,732,0
2882280,732,0
2884288,731,0
2886280,732,0
2888288,731,0
2890280,732,0
2892288,731,0
2894288,732,0
2896280,732,0
2898288,732,0
2900280,732,0
2902288,731,0
2904288,731,0
2906288,731,0
2908288,732,0
2910280,732,0
2912280,732,0
2914280,732,0
2916288,732,0
2918288,732,0
2920288,732,0
2922288,732,0
2924280,732,0
2926288,731,0
2928288,732,0
2930288,732,0
2932288,732,0
2934288,732,0
2936288,732,0
2938288,732,0
2940288,732,0
2942288,731,0
2944288,731,0
2946288,732,0
2948288,731,0
2950288,731,0
2952280,732,0
2954280,731,0
2956280,731,0
2958288,731,0
2960288,731,0
2962280,731,0
2964288,732,0
2966288,731,0
2968288,732,0
2970288,731,0
2972280,731,0
2974288,732,0
2976288,731,0
2978280,732,0
2980288,732,0
2982280,731,0
2984288,731,0
2986288,731,0
2988288,731,0
2990288,731,0
2992288,731,0
2994280,731,0
2996280,731,0
2998280,731,0
3000280,731,0
3002288,731,0
3004288,731,0
3006288,731,0
3008288,731,0
3010288,731,0
3012288,731,0
3014288,731,0
3016288,731,0
3018288,731,0
3020288,731,0
3022288,731,0
3024288,731,0
3026288,731,0
3028288,731,0
3030288,731,0
3032280,731,0
3034288,731,0
3036288,731,0
3038280,731,0
3040288,731,0
3042280,731,0
3044288,731,0
3046288,731,0
3048288,731,0
3050288,731,0
3052288,731,0
3054288,731,0
3056288,731,0
3058288,731,0
3060288,730,0
3062288,731,0
3064288,731,0
3066288,731,0
3068288,730,0
3070288,731,0
3072280,730,0
3074280,730,0
3076288,730,0
3078288,730,0
3080280,730,0
3082280,730,0
3084280,730,0
3086288,729,0
3088288,729,0
3090280,729,0
3092288,729,0
3094288,729,0
3096288,729,0
3098288,729,0
3100280,729,0
3102288,729,0
3104288,728,0
3106288,728,0
3108288,729,0
3110288,729,0
3112280,729,0
3114280,728,0
3116288,728,0
3118288,728,0
3120288,727,0
3122280,728,0
3124280,728,0
3126280,728,0
3128280,728,0
3130288,728,0
3132288,728,0
3134288,727,0
3136288,727,0
3138280,727,0
3140288,727,0
3142288,727,0
3144288,727,0
3146288,727,0
3148288,727,0
3150288,727,0
3152288,726,0
3154288,726,0
3156288,726,0
3158288,726,0
3160288,726,0
3162288,726,0
3164288,726,0
3166280,725,0
3168288,723,0
3170280,720,0
3172280,717,0
3174280,714,0
3176280,713,0
3178280,709,0
3180288,704,0
3182288,696,0
3184288,690,0
3186288,690,0
3188288,702,0
3190288,723,0
3192288,728,0
3194280,729,0
3196280,729,0
3198288,730,0
3200280,730,0
3202280,731,0
3204288,731,0
3206280,731,0
3208280,731,0
3210280,731,0
3212280,731,0
3214288,731,0
3216288,731,0
3218280,731,0
3220288,731,0
3222288,730,0
3224288,730,0
3226288,729,0
3228280,728,0
3230288,726,0
3232288,712,0
3234288,674,0
3236288,633,0
3238288,600,0
3240288,582,0
3242288,580,0
3244288,588,0
3246288,598,0
3248288,605,0
3250280,609,0
3252280,611,0
3254280,614,0
3256288,621,0
3258288,631,0
3260288,643,0
3262288,652,0
3264288,655,0
3266280,652,0
3268288,645,0
3270288,638,0
3272280,635,0
3274280,637,0
3276280,642,0
3278288,647,0
3280280,647,0
3282280,643,0
3284280,636,0
3286288,628,0
3288280,624,0
3290280,626,0
3292288,631,0
3294280,638,0
3296280,640,0
3298288,637,0
3300280,630,0
3302288,621,0
3304288,617,0
3306280,617,0
3308288,623,0
3310280,630,0
3312288,635,0
3314288,634,0
3316288,627,0
3318288,618,0
3320288,610,0
3322288,606,0
3324280,609,0
3326288,615,0
3328288,622,0
3330280,624,0
3332288,620,0
3334280,612,0
3336280,605,0
3338280,601,0
3340280,603,0
3342288,608,0
3344280,613,0
3346288,614,0
3348288,611,0
3350288,604,0
3352288,597,0
3354288,594,0
3356280,596,0
3358288,603,0
3360288,611,0
3362280,616,0
3364288,615,0
3366280,609,0
3368288,601,0
3370280,596,0
3372288,596,0
3374288,602,0
3376280,609,0
3378280,615,0
3380280,616,0
3382280,613,0
3384280,605,0
3386288,599,0
3388280,597,0
3390288,600,0
3392288,607,0
3394280,614,0
3396288,616,0
3398288,612,0
3400288,605,0
3402280,598,0
3404288,595,0
3406288,597,0
3408280,603,0
3410288,609,0
3412280,612,0
3414288,610,0
3416288,605,0
3418288,600,0
3420288,596,0
3422280,597,0
3424280,601,0
3426280,608,0
3428288,614,0
3430288,616,0
3432288,611,0
3434288,605,0
3436288,599,0
3438288,598,0
3440288,601,0
3442288,608,0
3444280,616,0
3446288,619,0
3448288,616,0
3450288,609,0
3452288,602,0
3454288,597,0
3456288,598,0
3458280,603,0
3460288,608,0
3462288,611,0
3464280,607,0
3466280,599,0
3468280,590,0
3470288,584,0
3472288,584,0
3474288,589,0
3476288,595,0
3478288,599,0
3480288,598,0
3482288,591,0
3484280,582,0
3486288,574,0
3488288,571,0
3490280,572,0
3492288,577,0
3494288,580,0
3496288,578,0
3498288,571,0
3500288,561,0
3502288,550,0
3504288,543,0
3506280,542,0
3508280,544,0
3510280,547,0
3512288,547,0
3514288,541,0
3516288,530,0
3518288,517,0
3520288,508,0
3522280,505,0
3524288,509,0
3526280,514,0
3528288,518,0
3530280,517,0
3532288,511,0
3534288,502,0
3536280,494,0
3538288,491,0
3540280,493,0
3542288,499,0
3544288,504,0
3546288,504,0
3548288,500,0
3550280,492,0
3552280,486,0
3554280,484,0
3556288,488,0
3558288,495,0
3560288,502,0
3562288,506,0
3564288,504,0
3566288,497,0
3568288,490,0
3570288,486,0
3572288,487,0
3574288,493,0
3576288,499,0
3578288,504,0
3580288,503,0
3582288,497,0
3584280,490,0
3586280,483,0
3588288,482,0
3590280,485,0
3592280,492,0
3594280,497,0
3596280,498,0
3598288,494,0
3600288,487,0
3602280,482,0
3604288,481,0
3606288,486,0
3608280,494,0
3610288,500,0
3612280,503,0
3614288,499,0
3616288,491,0
3618280,482,0
3620280,477,0
3622288,478,0
3624288,483,0
3626280,490,0
3628288,494,0
3630280,493,0
3632288,488,0
3634280,479,0
3636280,474,0
3638280,473,0
3640280,479,0
3642288,486,0
3644280,491,0
3646288,491,0
3648288,485,0
3650280,477,0
3652288,470,0
3654288,468,0
3656288,471,0
3658288,477,0
3660288,482,0
3662288,484,0
3664288,480,0
3666288,472,0
3668288,464,0
3670288,459,0
3672288,460,0
3674288,464,0
3676288,471,0
3678280,474,0
3680288,472,0
3682280,466,0
3684288,457,0
3686288,451,0
3688288,450,0
3690280,454,0
3692280,459,0
3694288,463,0
3696288,461,0
3698288,454,0
3700288,445,0
3702280,438,0
3704288,437,0
3706288,441,0
3708288,448,0
3710288,454,0
3712288,455,0
3714280,450,0
3716288,441,0
3718288,433,0
3720280,428,0
3722280,429,0
3724280,434,0
3726288,439,0
3728288,442,0
3730280,440,0
3732288,433,0
3734288,427,0
3736288,423,0
3738288,423,0
3740280,428,0
3742288,434,0
3744288,437,0
3746288,436,0
3748288,431,0
3750288,423,0
3752288,416,0
3754288,415,0
3756288,420,0
3758288,426,0
3760288,432,0
3762280,433,0
3764288,430,0
3766280,423,0
3768280,416,0
3770288,412,0
3772288,413,0
3774288,419,0
3776288,426,0
3778280,429,0
3780288,426,0
3782288,419,0
3784288,412,0
3786288,408,0
3788288,410,0
3790288,415,0
3792288,420,0
3794288,423,0
3796288,421,0
3798288,416,0
3800288,409,0
3802288,404,0
3804288,403,0
3806280,408,0
3808288,414,0
3810280,420,0
3812288,421,0
3814288,417,0
3816288,411,0
3818288,405,0
3820288,404,0
3822288,408,0
3824288,415,0
3826288,422,0
3828288,426,0
3830288,425,0
3832288,421,0
3834280,416,0
3836280,415,0
3838280,418,0
3840280,426,0
3842280,434,0
3844288,440,0
3846280,439,0
3848280,433,0
3850280,425,0
3852280,420,0
3854288,419,0
3856280,424,0
3858288,432,0
3860288,437,0
3862288,437,0
3864288,431,0
3866288,424,0
3868280,418,0
3870288,418,0
3872288,425,0
3874280,435,0
3876288,446,0
3878288,451,0
3880288,450,0
3882288,442,0
3884288,433,0
3886288,427,0
3888288,426,0
3890280,429,0
3892288,434,0
3894280,437,0
3896280,436,0
3898288,430,0
3900288,424,0
3902288,418,0
3904288,418,0
3906280,422,0
3908288,428,0
3910288,432,0
3912288,432,0
3914288,427,0
3916288,421,0
3918288,416,0
3920288,416,0
3922288,421,0
3924288,428,0
3926288,434,0
3928288,435,0
3930288,431,0
3932288,423,0
3934280,416,0
3936280,413,0
3938280,416,0
3940288,422,0
3942288,430,0
3944288,433,0
3946280,432,0
3948288,428,0
3950288,422,0
3952288,420,0
3954288,422,0
3956288,429,0
3958288,436,0
3960288,442,0
3962288,442,0
3964288,439,0
3966288,433,0
3968288,428,0
3970280,427,0
3972288,430,0
3974288,436,0
3976280,441,0
3978280,442,0
3980280,438,0
3982288,432,0
3984288,428,0
3986288,426,0
3988288,429,0
3990288,433,0
3992288,436,0
3994288,435,0
3996288,429,0
3998288,421,0
4000288,417,0
4002280,420,0
4004288,436,0
4006280,463,0
4008288,498,0
4010280,534,0
4012288,572,0
4014288,612,0
4016288,656,0
4018280,706,0
4020280,728,0
4022280,729,0
4024280,730,0
4026288,730,0
4028288,730,0
4030288,729,0
4032288,727,0
4034280,703,0
4036288,626,0
4038288,540,0
4040288,462,0
4042288,400,0
4044288,355,0
4046288,326,0
4048280,310,0
4050288,305,0
4052288,313,0
4054288,332,0
4056288,356,0
4058288,380,0
4060288,399,0
4062280,411,0
4064280,416,0
4066280,416,0
4068288,417,0
4070288,422,0
4072288,432,0
4074288,443,0
4076288,451,0
4078288,454,0
4080288,452,0
4082288,446,0
4084288,442,0
4086288,442,0
4088288,447,0
4090288,456,0
4092288,465,0
4094288,470,0
4096280,468,0
4098280,463,0
4100280,458,0
4102280,456,0
4104280,461,0
4106280,469,0
4108292,478,0
4110280,482,0
4112280,480,0
4114280,475,0
4116288,468,0
4118280,464,0
4120288,466,0
4122280,473,0
4124280,481,0
4126280,487,0
4128288,488,0
4130280,485,0
4132280,479,0
4134288,475,0
4136288,475,0
4138288,480,0
4140280,487,0
4142288,493,0
4144280,495,0
4146280,492,0
4148280,487,0
4150280,481,0
4152280,479,0
4154288,482,0
4156280,489,0
4158288,496,0
4160288,500,0
4162280,498,0
4164280,492,0
4166280,484,0
4168288,480,0
4170280,481,0
4172280,486,0
4174288,492,0
4176280,495,0
4178288,493,0
4180280,487,0
4182288,480,0
4184280,476,0
4186288,476,0
4188288,481,0
4190288,489,0
4192280,495,0
4194280,496,0
4196288,491,0
4198280,484,0
4200288,479,0
4202280,477,0
4204288,481,0
4206280,489,0
4208288,497,0
4210288,500,0
4212288,498,0
4214280,492,0
4216288,486,0
4218288,483,0
4220288,485,0
4222280,492,0
4224288,499,0
4226280,504,0
4228288,503,0
4230280,498,0
4232280,492,0
4234280,487,0
4236280,486,0
4238288,491,0
4240288,497,0
4242280,502,0
4244288,503,0
4246288,499,0
4248288,491,0
4250288,485,0
4252280,482,0
4254288,485,0
4256288,490,0
4258280,495,0
4260288,496,0
4262280,492,0
4264288,484,0
4266280,477,0
4268288,473,0
4270288,473,0
4272288,478,0
4274280,483,0
4276280,485,0
4278280,482,0
4280280,473,0
4282288,462,0
4284280,454,0
4286288,450,0
4288288,451,0
4290280,454,0
4292288,455,0
4294288,450,0
4296288,440,0
4298288,427,0
4300288,416,0
4302288,408,0
4304280,405,0
4306280,404,0
4308288,402,0
4310288,395,0
4312288,382,0
4314288,365,0
4316288,345,0
4318280,329,0
4320280,315,0
4322280,304,0
4324288,291,0
4326288,275,0
4328288,254,0
4330280,228,0
4332288,200,0
4334288,175,0
4336288,153,0
4338288,135,0
4340288,118,0
4342288,96,0
4344288,68,0
4346288,34,0
4348288,0,0
4350288,0,0
4352288,0,0
4354280,0,0
4356288,0,0
4358280,0,0
4360280,0,0
4362280,0,0
4364280,0,0
4366288,0,0
4368280,0,0
4370280,0,0
4372288,0,0
4374288,0,0
4376288,0,0
4378288,0,0
4380280,0,0
4382288,0,0
4384288,0,0
4386280,0,0
4388288,0,0
4390280,0,0
4392288,0,0
4394288,0,0
4396288,0,0
4398288,0,0
4400288,0,0
4402280,0,0
4404280,0,0
4406280,0,0
4408280,0,0
4410288,0,0
4412280,0,0
4414288,0,0
4416288,0,0
4418280,0,0
4420288,0,0
4422288,0,0
4424288,0,0
4426280,0,0
4428280,0,0
4430288,0,0
4432280,0,0
4434288,0,0
4436280,0,0
4438288,0,0
4440288,0,0
4442288,0,0
4444288,0,0
4446280,0,0
4448280,0,0
4450280,0,0
4452288,0,0
4454288,0,0
4456288,0,0
4458280,0,0
4460288,0,0
4462288,21,0
4464288,104,0
4466288,197,0
4468288,278,0
4470288,337,0
4472288,372,0
4474288,389,0
4476288,393,0
4478288,389,0
4480280,382,0
4482288,374,0
4484288,369,0
4486280,365,0
4488280,362,0
4490280,362,0
4492280,362,0
4494288,363,0
4496288,364,0
4498280,365,0
4500288,366,0
4502288,367,0
4504288,368,0
4506288,368,0
4508280,367,0
4510280,367,0
4512288,366,0
4514280,366,0
4516288,366,0
4518280,366,0
4520288,366,0
4522288,367,0
4524288,367,0
4526288,367,0
4528288,367,0
4530280,367,0
4532280,367,0
4534280,367,0
4536280,367,0
4538288,367,0
4540288,367,0
4542288,367,0
4544288,367,0
4546288,366,0
4548288,366,0
4550288,367,0
4552288,367,0
4554288,367,0
4556288,367,0
4558288,367,0
4560288,367,0
4562288,367,0
4564288,367,0
4566288,367,0
4568288,367,0
4570288,360,0
4572288,338,0
4574280,297,0
4576288,232,0
4578280,145,0
4580288,44,0
4582288,0,0
4584288,0,0
4586288,0,0
4588288,0,0
4590280,0,0
4592288,0,0
4594288,0,0
4596288,0,0
4598288,0,0
4600288,0,0
4602288,0,0
4604288,0,0
4606288,0,0
4608288,0,0
4610280,0,0
4612280,0,0
4614280,0,0
4616280,0,0
4618280,0,0
4620280,0,0
4622288,0,0
4624280,0,0
4626288,0,0
4628280,0,0
4630288,0,0
4632288,0,0
4634288,0,0
4636280,0,0
4638288,0,0
4640288,0,0
4642280,0,0
4644280,0,0
4646280,0,0
4648288,0,0
4650280,0,0
4652288,0,0
4654280,0,0
4656288,0,0
4658280,0,0
4660280,0,0
4662280,0,0
4664280,0,0
4666288,0,0
4668280,0,0
4670288,0,0
4672288,0,0
4674280,0,0
4676288,0,0
4678280,0,0
4680288,0,0
4682280,0,0
4684288,0,0
4686288,0,0
4688288,0,0
4690280,0,0
4692288,0,0
4694288,0,0
4696288,0,0
4698288,0,0
4700288,0,0
4702280,0,0
4704288,0,0
4706280,0,0
4708288,0,0
4710288,0,0
4712280,0,0
4714288,0,0
4716280,0,0
4718288,0,0
4720288,0,0
4722288,0,0
4724288,0,0
4726288,0,0
4728288,0,0
4730288,0,0
4732288,0,0
4734288,0,0
4736288,0,0
4738288,0,0
4740288,0,0
4742288,0,0
4744280,0,0
4746280,0,0
4748280,0,0
4750288,0,0
4752288,0,0
4754280,0,0
4756288,0,0
4758288,0,0
4760288,0,0
4762288,0,0
4764280,0,0
4766288,0,0
4768288,0,0
4770280,0,0
4772288,0,0
4774288,0,0
4776288,0,0
4778288,0,0
4780288,0,0
4782288,0,0
4784288,0,0
4786280,0,0
4788280,0,0
4790280,0,0
4792288,0,0
4794288,0,0
4796288,19,0
4798288,99,0
4800288,192,0
4802280,274,0
4804288,334,0
4806288,370,0
4808288,387,0
4810288,392,0
4812288,388,0
4814288,382,0
4816288,375,0
4818280,370,0
4820288,366,0
4822288,364,0
4824288,363,0
4826288,363,0
4828288,363,0
4830280,364,0
4832288,365,0
4834280,365,0
4836288,366,0
4838288,366,0
4840288,366,0
4842288,366,0
4844288,366,0
4846288,366,0
4848288,366,0
4850288,366,0
4852288,367,0
4854288,367,0
4856288,367,0
4858288,367,0
4860288,367,0
4862288,366,0
4864288,367,0
4866280,367,0
4868288,367,0
4870288,367,0
4872280,367,0
4874280,367,0
4876280,367,0
4878288,367,0
4880288,367,0
4882288,367,0
4884288,368,0
4886288,368,0
4888288,368,0
4890288,368,0
4892288,368,0
4894288,368,0
4896288,368,0
4898288,369,0
4900288,374,0
4902288,386,0
4904280,398,0
4906280,392,0
4908280,346,0
4910280,255,0
4912280,133,0
4914288,0,0
4916288,0,0
4918288,0,0
4920280,0,0
4922288,0,0
4924280,0,0
4926288,0,0
4928280,0,0
4930280,0,0
4932288,0,0
4934280,0,0
4936288,0,0
4938280,0,0
4940288,0,0
4942288,0,0
4944280,0,0
4946288,0,0
4948280,0,0
4950288,0,0
4952288,0,0
4954288,0,0
4956288,0,0
4958280,0,0
4960280,0,0
4962280,0,0
4964288,0,0
4966280,0,0
4968288,0,0
4970280,0,0
4972288,0,0
4974288,0,0
4976288,0,0
4978288,0,0
4980288,0,0
4982288,0,0
4984288,0,0
4986288,0,0
4988288,0,0
4990288,0,0
4992288,0,0
4994288,0,0
4996288,0,0
4998288,0,0
5000280,0,0
5002280,0,0
5004280,0,0
5006288,0,0
5008288,0,0
5010280,0,0
5012288,0,0
5014288,0,0
5016288,0,0
5018288,0,0
5020280,0,0
5022288,0,0
5024288,0,0
5026280,0,0
5028288,0,0
5030288,0,0
5032288,0,0
5034288,0,0
5036288,0,0
5038288,0,0
5040288,0,0
5042280,0,0
5044280,0,0
5046280,0,0
5048280,0,0
5050288,0,0
5052288,0,0
5054288,0,0
5056288,0,0
5058288,0,0
5060288,0,0
5062288,0,0
5064288,0,0
5066288,0,0
5068288,0,0
5070288,0,0
5072288,0,0
5074288,0,0
5076288,0,0
5078288,0,0
5080288,0,0
5082288,0,0
5084288,0,0
5086280,0,0
5088288,0,0
5090280,0,0
5092288,0,0
5094288,0,0
5096280,0,0
5098280,0,0
5100288,0,0
5102288,0,0
5104288,0,0
5106288,0,0
5108288,0,0
5110288,0,0
5112288,0,0
5114280,0,0
5116280,0,0
5118280,0,0
5120280,0,0
5122280,0,0
5124280,0,0
5126280,0,0
5128280,0,0
5130280,0,0
5132292,0,0
5134280,0,0
5136288,0,0
5138280,0,0
5140280,0,0
5142288,0,0
5144288,0,0
5146280,0,0
5148280,0,0
5150288,0,0
5152288,0,0
5154280,0,0
5156288,0,0
5158280,0,0
5160288,0,0
5162288,0,0
5164280,0,0
5166288,0,0
5168280,0,0
5170280,0,0
5172280,0,0
5174280,0,0
5176280,0,0
5178288,0,0
5180280,0,0
5182288,0,0
5184288,0,0
5186280,0,0
5188288,0,0
5190280,0,0
5192288,0,0
5194280,0,0
5196288,0,0
5198288,0,0
5200288,0,0
5202280,0,0
5204288,0,0
5206288,0,0
5208288,0,0
5210288,0,0
5212288,0,0
5214280,0,0
5216280,0,0
5218280,0,0
5220288,0,0
5222288,0,0
5224288,0,0
5226280,0,0
5228288,0,0
5230288,0,0
5232288,0,0
5234288,0,0
5236288,0,0
5238288,0,0
5240288,0,0
5242288,0,0
5244288,0,0
5246280,0,0
5248288,0,0
5250280,0,0
5252280,0,0
5254280,0,0
5256280,0,0
5258280,0,0
5260280,0,0
5262288,0,0
5264280,0,0
5266280,0,0
5268280,0,0
5270288,0,0
5272288,0,0
5274288,0,0
5276280,0,0
5278280,0,0
5280288,0,0
5282280,0,0
5284280,0,0
5286280,0,0
5288288,0,0
5290280,0,0
5292280,0,0
5294288,0,0
5296280,0,0
5298280,0,0
5300280,0,0
5302280,0,0
5304280,0,0
5306288,0,0
5308280,0,0
5310288,0,0
5312288,0,0
5314280,0,0
5316288,0,0
5318280,0,0
5320288,0,0
5322280,0,0
5324288,0,0
5326288,0,0
5328280,0,0
5330280,0,0
5332280,0,0
5334288,0,0
5336280,0,0
5338288,0,0
5340288,0,0
5342288,0,0
5344280,0,0
5346280,0,0
5348288,0,0
5350280,0,0
5352288,0,0
5354280,0,0
5356288,0,0
5358280,0,0
5360288,0,0
5362288,0,0
5364288,0,0
5366280,0,0
5368288,0,0
5370280,0,0
5372288,0,0
5374280,0,0
5376288,0,0
5378280,0,0
5380280,0,0
5382280,0,0
5384280,0,0
5386280,0,0
5388280,0,0
5390288,0,0
5392280,0,0
5394288,0,0
5396280,0,0
5398288,0,0
5400288,0,0
5402288,0,0
5404280,0,0
5406288,0,0
5408288,0,0
5410280,0,0
5412280,0,0
5414280,0,0
5416288,0,0
5418280,0,0
5420288,0,0
5422280,0,0
5424288,0,0
5426280,0,0
5428280,0,0
5430280,0,0
5432280,0,0
5434288,0,0
5436280,0,0
5438288,0,0
5440288,0,0
5442280,0,0
5444280,0,0
5446280,0,0
5448288,0,0
5450280,0,0
5452280,0,0
5454288,0,0
5456280,0,0
5458280,0,0
5460280,0,0
5462288,0,0
5464288,0,0
5466280,0,0
5468288,0,0
5470280,0,0
5472280,0,0
5474280,0,0
5476288,0,0
5478288,0,0
5480288,0,0
5482280,0,0
5484288,0,0
5486288,0,0
5488288,0,0
5490288,0,0
5492288,0,0
5494280,0,0
5496288,0,0
5498288,0,0
5500288,0,0
5502288,0,0
5504288,0,0
5506280,0,0
5508288,0,0
5510288,0,0
5512280,0,0
5514280,0,0
5516280,0,0
5518288,0,0
5520288,0,0
5522280,0,0
5524288,0,0
5526288,0,0
5528288,0,0
5530288,0,0
5532280,0,0
5534288,0,0
5536288,0,0
5538280,0,0
5540288,0,0
5542280,0,0
5544288,0,0
5546288,0,0
5548288,0,0
5550288,0,0
5552288,0,0
5554280,0,0
5556280,0,0
5558280,0,0
5560280,0,0
5562288,0,0
5564288,0,0
5566288,0,0
5568288,0,0
5570288,0,0
5572288,0,0
5574280,0,0
5576288,0,0
5578288,0,0
5580288,0,0
5582288,0,0
5584288,0,0
5586280,0,0
5588288,0,0
5590288,0,0
5592288,0,0
5594288,0,0
5596288,0,0
5598280,0,0
5600288,0,0
5602280,0,0
5604288,0,0
5606280,0,0
5608288,0,0
5610280,0,0
5612288,0,0
5614280,0,0
5616288,0,0
5618280,0,0
5620288,0,0
5622288,0,0
5624288,0,0
5626288,0,0
5628288,0,0
5630288,0,0
5632288,0,0
5634280,0,0
5636280,0,0
5638280,0,0
5640280,0,0
5642280,0,0
5644280,0,0
5646288,0,0
5648280,0,0
5650288,0,0
5652288,0,0
5654288,0,0
5656288,0,0
5658288,0,0
5660280,0,0
5662288,0,0
5664288,0,0
5666280,0,0
5668288,0,0
5670280,0,0
5672288,0,0
5674288,0,0
5676288,0,0
5678288,0,0
5680288,0,0
5682280,0,0
5684280,0,0
5686280,0,0
5688280,0,0
5690288,0,0
5692288,0,0
5694288,0,0
5696288,0,0
5698280,0,0
5700288,0,0
5702288,0,0
5704288,0,0
5706288,0,0
5708288,0,0
5710288,0,0
5712288,0,0
5714288,0,0
5716288,0,0
5718288,0,0
5720288,0,0
5722288,0,0
5724288,0,0
5726280,0,0
5728288,0,0
5730280,0,0
5732288,0,0
5734288,0,0
5736280,0,0
5738288,0,0
5740280,0,0
5742288,0,0
5744288,0,0
5746288,0,0
5748288,0,0
5750280,0,0
5752288,0,0
5754288,0,0
5756288,0,0
5758288,0,0
5760288,0,0
5762280,0,0
5764280,0,0
5766280,0,0
5768280,0,0
5770280,48,0
5772280,118,0
5774288,191,0
5776288,259,0
5778280,318,0
5780288,372,0
5782288,419,0
5784288,445,0
5786288,433,0
5788280,380,0
5790288,296,0
5792288,201,0
5794280,114,0
5796288,51,0
5798288,17,0
5800288,8,0
5802280,15,0
5804288,27,0
5806288,33,0
5808288,29,0
5810280,21,0
5812280,16,0
5814280,23,0
5816280,43,0
5818288,72,0
5820288,100,0
5822288,115,0
5824288,117,0
5826280,109,0
5828288,100,0
5830288,99,0
5832288,110,0
5834288,130,0
5836288,151,0
5838288,163,0
5840288,161,0
5842280,146,0
5844288,125,0
5846288,106,0
5848288,98,0
5850288,99,0
5852288,105,0
5854280,105,0
5856288,93,0
5858280,67,0
5860288,35,0
5862288,6,0
5864288,0,0
5866288,0,0
5868288,0,0
5870288,0,0
5872288,0,0
5874288,0,0
5876288,0,0
5878288,0,0
5880288,0,0
5882288,0,0
5884288,0,0
5886288,0,0
5888288,0,0
5890280,0,0
5892288,0,0
5894288,0,0
5896280,0,0
5898280,0,0
5900280,0,0
5902288,0,0
5904288,0,0
5906280,0,0
5908288,0,0
5910288,0,0
5912288,0,0
5914288,0,0
5916280,0,0
5918288,0,0
5920288,0,0
5922280,0,0
5924288,0,0
5926280,0,0
5928288,0,0
5930288,0,0
5932288,0,0
5934288,0,0
5936288,0,0
5938280,0,0
5940280,0,0
5942280,0,0
5944280,0,0
5946288,0,0
5948280,0,0
5950288,0,0
5952288,0,0
5954280,0,0
5956288,0,0
5958288,0,0
5960288,0,0
5962280,0,0
5964288,0,0
5966288,0,0
5968288,0,0
5970280,0,0
5972288,0,0
5974288,0,0
5976288,0,0
5978288,0,0
5980288,0,0
5982280,0,0
5984280,0,0
5986280,0,0
5988288,0,0
5990288,0,0
5992288,0,0
5994288,0,0
5996288,0,0
5998288,0,0
6000288,0,0
6002288,0,0
6004288,0,0
6006288,0,0
6008288,0,0
6010288,0,0
6012288,0,0
6014288,0,0
6016288,0,0
6018288,0,0
6020288,0,0
6022288,0,0
6024280,0,0
6026280,0,0
6028280,0,0
6030288,0,0
6032288,0,0
6034288,0,0
6036288,0,0
6038288,0,0
6040288,0,0
6042288,0,0
6044280,0,0
6046288,0,0
6048288,0,0
6050288,0,0
6052288,0,0
6054288,0,0
6056288,0,0
6058288,0,0
6060288,0,0
6062288,0,0
6064288,0,0
6066280,0,0
6068280,0,0
6070280,0,0
6072288,0,0
6074288,0,0
6076288,0,0
6078288,0,0
6080288,0,0
6082280,0,0
6084288,0,0
6086288,0,0
6088288,0,0
6090288,0,0
6092288,0,0
6094288,0,0
6096288,0,0
6098288,0,0
6100288,0,0
6102288,0,0
6104288,0,0
6106288,0,0
6108288,0,0
6110280,0,0
6112288,0,0
6114280,0,0
6116288,0,0
6118288,0,0
6120280,0,0
6122288,0,0
6124288,0,0
6126288,0,0
6128288,0,0
6130288,0,0
6132288,0,0
6134288,0,0
6136288,0,0
6138280,5,0
6140280,33,0
6142280,65,0
6144280,99,0
6146280,135,0
6148288,176,0
6150280,216,0
6152280,251,0
6154280,274,0
6156280,282,0
6158288,280,0
6160288,275,0
6162280,278,0
6164288,292,0
6166288,318,0
6168288,348,0
6170288,373,0
6172288,387,0
6174288,391,0
6176288,390,0
6178288,392,0
6180288,404,0
6182288,427,0
6184288,456,0
6186288,482,0
6188288,498,0
6190288,502,0
6192288,498,0
6194280,496,0
6196288,503,0
6198280,520,0
6200288,547,0
6202288,574,0
6204288,592,0
6206288,598,0
6208288,595,0
6210288,590,0
6212288,592,0
6214288,604,0
6216280,626,0
6218280,653,0
6220288,674,0
6222288,683,0
6224288,681,0
6226288,674,0
6228288,672,0
6230288,681,0
6232288,701,0
6234288,723,0
6236288,726,0
6238280,727,0
6240288,727,0
6242280,726,0
6244288,727,0
6246288,727,0
6248288,728,0
6250288,729,0
6252288,729,0
6254288,730,0
6256288,730,0
6258288,730,0
6260288,730,0
6262288,730,0
6264288,730,0
6266280,731,0
6268280,731,0
6270288,731,0
6272280,731,0
6274288,731,0
6276288,731,0
6278288,731,0
6280280,731,0
6282288,731,0
6284280,731,0
6286280,731,0
6288280,731,0
6290288,731,0
6292288,731,0
6294288,731,0
6296280,731,0
6298280,731,0
6300288,731,0
6302288,731,0
6304280,732,0
6306280,731,0
6308280,731,0
6310288,731,0
6312280,732,0
6314280,732,0
6316280,732,0
6318280,732,0
6320280,732,0
6322288,732,0
6324288,732,0
6326280,732,0
6328288,732,0
6330280,732,0
6332280,732,0
6334280,732,0
6336280,732,0
6338288,732,0
6340280,732,0
6342280,732,0
6344280,732,0
6346280,732,0
6348280,732,0
6350280,732,0
6352280,732,0
6354280,732,0
6356280,732,0
6358280,732,0
6360280,732,0
6362280,732,0
6364288,732,0
6366280,732,0
6368288,732,0
6370280,732,0
6372280,732,0
6374280,732,0
6376280,732,0
6378280,732,0
6380280,732,0
6382280,732,0
6384280,732,0
6386280,732,0
6388280,732,0
6390280,732,0
6392280,732,0
6394280,732,0
6396280,732,0
6398280,732,0
6400280,732,0
6402280,732,0
6404288,732,0
6406280,732,0
6408280,732,0
6410280,732,0
6412280,732,0
6414288,732,0
6416288,732,0
6418280,732,0
6420288,732,0
6422288,732,0
6424288,732,0
6426288,732,0
6428288,732,0
6430288,732,0
6432288,732,0
6434280,732,0
6436288,732,0
6438288,732,0
6440288,732,0
6442288,732,0
6444288,732,0
6446288,732,0
6448288,732,0
6450280,732,0
6452288,732,0
6454280,732,0
6456280,732,0
6458288,732,0
6460288,732,0
6462288,732,0
6464288,732,0
6466280,732,0
6468288,732,0
6470288,732,0
6472288,732,0
6474288,732,0
6476288,732,0
6478288,732,0
6480288,732,0
6482288,732,0
6484288,732,0
6486288,732,0
6488288,732,0
6490288,732,0
6492288,732,0
6494280,732,0
6496288,732,0
6498280,732,0
6500288,732,0
6502288,732,0
6504280,732,0
6506288,732,0
6508288,732,0
6510288,732,0
6512288,732,0
6514288,732,0
6516288,732,0
6518288,732,0
6520288,732,0
6522280,732,0
6524280,732,0
6526280,732,0
6528280,732,0
6530288,732,0
6532288,732,0
6534288,732,0
6536288,732,0
6538280,732,0
6540292,732,0
6542280,732,0
6544280,732,0
6546280,732,0
6548280,732,0
6550280,732,0
6552280,732,0
6554280,732,0
6556280,732,0
6558280,732,0
6560288,732,0
6562280,732,0
6564280,732,0
6566280,732,0
6568288,732,0
6570280,732,0
6572288,732,0
6574280,732,0
6576288,732,0
6578280,732,0
6580280,732,0
6582280,732,0
6584280,732,0
6586288,732,0
6588280,732,0
6590288,732,0
6592288,732,0
6594280,732,0
6596288,732,0
6598280,732,0
6600288,732,0
6602280,732,0
6604288,732,0
6606288,732,0
6608280,732,0
6610280,732,0
6612288,732,0
6614288,732,0
6616288,732,0
6618288,732,0
6620288,732,0
6622280,732,0
6624280,732,0
6626280,732,0
6628288,732,0
6630288,732,0
6632288,732,0
6634288,732,0
6636288,732,0
6638288,732,0
6640288,732,0
6642288,732,0
6644288,732,0
6646288,732,0
6648288,732,0
6650288,732,0
6652288,732,0
6654288,732,0
6656288,732,0
6658280,732,0
6660288,732,0
6662280,732,0
6664280,732,0
6666280,732,0
6668280,732,0
6670288,732,0
6672288,732,0
6674280,732,0
6676288,732,0
6678288,732,0
6680288,732,0
6682288,732,0
6684280,732,0
6686288,732,0
6688288,732,0
6690280,732,0
6692288,732,0
6694288,732,0
6696288,732,0
6698288,732,0
6700288,732,0
6702288,732,0
6704288,732,0
6706280,732,0
6708280,732,0
6710280,732,0
6712280,732,0
6714288,732,0
6716288,732,0
6718288,732,0
6720288,732,0
6722280,732,0
6724288,732,0
6726280,732,0
6728288,732,0
6730280,732,0
6732288,732,0
6734288,732,0
6736288,732,0
6738288,732,0
6740280,732,0
6742288,732,0
6744288,732,0
6746288,732,0
6748288,732,0
6750280,732,0
6752288,732,0
6754280,732,0
6756288,732,0
6758288,732,0
6760288,732,0
6762280,732,0
6764288,732,0
6766280,732,0
6768288,732,0
6770288,732,0
6772288,732,0
6774288,732,0
6776288,732,0
6778288,732,0
6780288,732,0
6782288,732,0
6784288,732,0
6786280,732,0
6788288,732,0
6790288,732,0
6792280,732,0
6794280,732,0
6796280,732,0
6798288,732,0
6800288,731,0
6802280,732,0
6804288,732,0
6806288,732,0
6808288,732,0
6810288,732,0
6812280,732,0
6814288,732,0
6816288,732,0
6818280,732,0
6820288,732,0
6822288,732,0
6824288,731,0
6826288,732,0
6828288,732,0
6830288,731,0
6832288,731,0
6834280,732,0
6836280,731,0
6838280,732,0
6840288,731,0
6842288,731,0
6844288,731,0
6846288,731,0
6848288,731,0
6850288,731,0
6852288,731,0
6854288,731,0
6856288,731,0
6858288,731,0
6860288,731,0
6862288,731,0
6864288,731,0
6866288,731,0
6868288,731,0
6870288,731,0
6872288,731,0
6874288,731,0
6876288,731,0
6878280,731,0
6880288,731,0
6882280,731,0
6884288,731,0
6886288,731,0
6888288,731,0
6890280,731,0
6892288,731,0
6894288,731,0
6896288,731,0
6898288,731,0
6900288,731,0
6902288,731,0
6904288,731,0
6906288,730,0
6908288,731,0
6910288,730,0
6912280,730,0
6914288,730,0
6916288,729,0
6918288,729,0
6920280,727,0
6922280,717,0
6924280,673,0
6926288,619,0
6928288,572,0
6930288,538,0
6932288,514,0
6934288,491,0
6936288,462,0
6938288,424,0
6940288,383,0
6942288,345,0
6944288,318,0
6946288,302,0
6948288,292,0
6950288,282,0
6952288,262,0
6954288,229,0
6956288,190,0
6958288,151,0
6960288,121,0
6962280,102,0
6964280,94,0
6966280,86,0
6968280,72,0
6970288,46,0
6972280,9,0
6974288,0,0
6976288,0,0
6978280,0,0
6980288,0,0
6982280,0,0
6984288,0,0
6986280,0,0
6988288,0,0
6990288,0,0
6992288,0,0
6994288,0,0
6996288,0,0
6998288,0,0
7000288,0,0
7002288,0,0
7004288,0,0
7006280,0,0
7008280,0,0
7010280,0,0
7012288,0,0
7014288,0,0
7016288,0,0
7018288,0,0
7020288,0,0
7022288,0,0
7024288,0,0
7026288,0,0
7028288,0,0
7030288,0,0
7032288,0,0
7034288,0,0
7036288,0,0
7038288,0,0
7040280,0,0
7042288,0,0
7044288,0,0
7046288,0,0
7048280,0,0
7050280,0,0
7052280,0,0
7054288,0,0
7056288,0,0
7058280,0,0
7060288,0,0
7062288,0,0
7064288,0,0
7066288,0,0
7068280,0,0
7070288,0,0
7072288,0,0
7074280,0,0
7076288,0,0
7078288,0,0
7080288,0,0
7082288,0,0
7084288,0,0
7086288,0,0
7088288,0,0
7090280,0,0
7092280,0,0
7094280,0,0
7096280,0,0
7098288,0,0
7100288,0,0
7102288,0,0
7104288,0,0
7106288,0,0
7108288,0,0
7110288,0,0
7112288,0,0
7114288,0,0
7116288,0,0
7118288,0,0
7120288,0,0
7122288,0,0
7124288,0,0
7126288,0,0
7128288,0,0
7130288,0,0
7132288,0,0
7134280,0,0
7136288,0,0
7138280,0,0
7140288,0,0
7142288,0,0
7144288,0,0
7146288,0,0
7148288,0,0
7150288,0,0
7152288,0,0
7154288,0,0
7156288,0,0
7158288,0,0
7160288,0,0
7162280,0,0
7164280,0,0
7166280,27,0
7168280,60,0
7170288,83,0
7172280,95,0
7174288,103,0
7176280,112,0
7178280,129,0
7180280,152,0
7182288,175,0
7184288,189,0
7186288,191,0
7188288,184,0
7190288,174,0
7192288,170,0
7194288,179,0
7196288,198,0
7198288,222,0
7200280,241,0
7202288,249,0
7204288,245,0
7206288,236,0
7208288,231,0
7210288,236,0
7212288,253,0
7214288,276,0
7216288,297,0
7218280,308,0
7220280,307,0
7222280,297,0
7224280,288,0
7226288,287,0
7228280,298,0
7230288,317,0
7232288,338,0
7234280,350,0
7236288,350,0
7238288,340,0
7240288,328,0
7242280,324,0
7244288,332,0
7246288,350,0
7248288,372,0
7250288,387,0
7252288,390,0
7254288,380,0
7256288,367,0
7258288,358,0
7260288,361,0
7262280,376,0
7264288,397,0
7266280,414,0
7268288,421,0
7270288,414,0
7272280,401,0
7274288,388,0
7276288,386,0
7278288,397,0
7280288,416,0
7282288,436,0
7284288,447,0
7286288,446,0
7288288,435,0
7290288,423,0
7292288,418,0
7294288,426,0
7296288,443,0
7298280,463,0
7300288,477,0
7302288,480,0
7304280,471,0
7306288,458,0
7308280,451,0
7310280,456,0
7312280,472,0
7314288,495,0
7316288,513,0
7318288,522,0
7320288,519,0
7322280,509,0
7324288,499,0
7326288,499,0
7328288,510,0
7330288,529,0
7332288,547,0
7334288,556,0
7336280,553,0
7338280,543,0
7340280,531,0
7342280,528,0
7344280,535,0
7346288,552,0
7348288,571,0
7350280,585,0
7352288,587,0
7354280,580,0
7356280,569,0
7358280,564,0
7360280,570,0
7362288,586,0
7364288,606,0
7366288,619,0
7368280,620,0
7370280,609,0
7372280,592,0
7374280,578,0
7376288,574,0
7378280,583,0
7380288,601,0
7382288,617,0
7384288,623,0
7386288,616,0
7388288,602,0
7390280,587,0
7392288,581,0
7394280,587,0
7396288,603,0
7398288,621,0
7400280,631,0
7402280,629,0
7404288,617,0
7406288,602,0
7408288,594,0
7410288,598,0
7412288,613,0
7414288,632,0
7416288,645,0
7418288,647,0
7420288,638,0
7422280,624,0
7424280,614,0
7426288,615,0
7428288,626,0
7430288,644,0
7432280,659,0
7434280,664,0
7436280,656,0
7438288,641,0
7440288,627,0
7442288,620,0
7444288,627,0
7446288,642,0
7448288,658,0
7450288,667,0
7452288,663,0
7454288,649,0
7456288,634,0
7458288,626,0
7460288,631,0
7462288,645,0
7464288,663,0
7466288,674,0
7468288,673,0
7470288,660,0
7472288,640,0
7474280,624,0
7476288,618,0
7478280,624,0
7480288,639,0
7482288,653,0
7484288,662,0
7486288,665,0
7488288,666,0
7490288,676,0
7492288,700,0
7494288,726,0
7496280,729,0
7498288,730,0
7500288,730,0
7502280,731,0
7504280,731,0
7506280,731,0
7508280,731,0
7510280,731,0
7512280,731,0
7514280,731,0
7516288,731,0
7518288,731,0
7520288,730,0
7522280,730,0
7524280,729,0
7526280,728,0
7528280,724,0
7530280,709,0
7532280,677,0
7534280,638,0
7536280,598,0
7538280,567,0
7540288,549,0
7542288,551,0
7544288,570,0
7546280,597,0
7548280,623,0
7550280,639,0
7552280,640,0
7554288,631,0
7556288,619,0
7558288,614,0
7560288,621,0
7562280,637,0
7564292,653,0
7566288,663,0
7568288,659,0
7570288,645,0
7572288,628,0
7574280,617,0
7576280,617,0
7578280,629,0
7580288,646,0
7582288,658,0
7584288,659,0
7586288,648,0
7588288,632,0
7590288,620,0
7592280,617,0
7594280,627,0
7596280,644,0
7598280,660,0
7600280,667,0
7602280,662,0
7604288,648,0
7606280,633,0
7608288,628,0
7610280,634,0
7612280,648,0
7614280,663,0
7616280,672,0
7618288,668,0
7620280,654,0
7622288,637,0
7624280,626,0
7626280,627,0
7628280,639,0
7630280,656,0
7632280,667,0
7634280,666,0
7636280,654,0
7638280,636,0
7640280,622,0
7642280,619,0
7644288,629,0
7646288,645,0
7648288,658,0
7650280,662,0
7652280,652,0
7654280,635,0
7656280,619,0
7658280,613,0
7660280,619,0
7662280,634,0
7664280,649,0
7666280,657,0
7668280,653,0
7670280,640,0
7672280,625,0
7674280,617,0
7676280,620,0
7678280,633,0
7680288,649,0
7682280,659,0
7684288,658,0
7686288,647,0
7688280,632,0
7690288,620,0
7692280,620,0
7694280,631,0
7696280,649,0
7698288,663,0
7700288,667,0
7702288,660,0
7704288,644,0
7706288,632,0
7708288,629,0
7710288,636,0
7712280,652,0
7714288,666,0
7716288,672,0
7718288,666,0
7720288,651,0
7722288,636,0
7724288,627,0
7726288,631,0
7728280,645,0
7730280,662,0
7732288,672,0
7734280,670,0
7736288,656,0
7738288,639,0
7740280,627,0
7742280,625,0
7744280,634,0
7746288,649,0
7748288,660,0
7750288,661,0
7752288,650,0
7754288,633,0
7756288,618,0
7758280,613,0
7760280,619,0
7762280,634,0
7764280,647,0
7766288,652,0
7768280,644,0
7770288,626,0
7772288,609,0
7774280,599,0
7776288,602,0
7778288,615,0
7780280,629,0
7782280,637,0
7784288,633,0
7786288,618,0
7788288,599,0
7790288,587,0
7792288,587,0
7794288,598,0
7796288,614,0
7798288,623,0
7800280,620,0
7802280,605,0
7804280,582,0
7806280,563,0
7808280,555,0
7810288,559,0
7812288,571,0
7814288,582,0
7816288,583,0
7818288,571,0
7820280,551,0
7822280,531,0
7824280,519,0
7826288,520,0
7828288,530,0
7830280,542,0
7832280,547,0
7834280,540,0
7836280,523,0
7838280,505,0
7840280,493,0
7842288,493,0
7844288,503,0
7846288,518,0
7848280,527,0
7850280,526,0
7852280,514,0
7854280,497,0
7856280,483,0
7858288,479,0
7860288,489,0
7862280,505,0
7864288,519,0
7866280,522,0
7868288,512,0
7870288,495,0
7872288,479,0
7874288,472,0
7876288,478,0
7878288,492,0
7880288,507,0
7882288,512,0
7884288,506,0
7886288,489,0
7888288,472,0
7890288,461,0
7892288,464,0
7894288,477,0
7896280,493,0
7898288,503,0
7900288,501,0
7902280,487,0
7904288,469,0
7906280,456,0
7908288,454,0
7910288,464,0
7912280,479,0
7914280,491,0
7916288,492,0
7918288,481,0
7920288,463,0
7922288,447,0
7924288,442,0
7926288,449,0
7928288,464,0
7930280,478,0
7932280,483,0
7934280,477,0
7936280,461,0
7938288,443,0
7940288,434,0
7942288,438,0
7944288,451,0
7946280,467,0
7948280,476,0
7950280,472,0
7952280,457,0
7954288,439,0
7956288,427,0
7958288,426,0
7960288,436,0
7962288,453,0
7964288,465,0
7966288,465,0
7968280,453,0
7970288,434,0
7972288,419,0
7974288,414,0
7976280,421,0
7978280,437,0
7980280,451,0
7982280,455,0
7984280,448,0
7986288,432,0
7988288,415,0
7990280,406,0
7992288,410,0
7994288,424,0
7996288,440,0
7998288,448,0
8000288,445,0
8002280,431,0
8004288,414,0
8006280,404,0
8008288,405,0
8010280,416,0
8012288,431,0
8014288,442,0
8016288,441,0
8018280,429,0
8020288,411,0
8022288,397,0
8024288,393,0
8026288,401,0
8028288,417,0
8030280,430,0
8032280,433,0
8034280,424,0
8036288,408,0
8038288,392,0
8040288,385,0
8042280,390,0
8044288,404,0
8046288,419,0
8048288,427,0
8050288,422,0
8052288,408,0
8054288,392,0
8056288,381,0
8058288,383,0
8060288,396,0
8062288,412,0
8064288,423,0
8066280,423,0
8068288,412,0
8070288,395,0
8072280,383,0
8074280,381,0
8076280,391,0
8078288,407,0
8080288,420,0
8082280,423,0
8084288,414,0
8086288,397,0
8088288,381,0
8090288,375,0
8092280,381,0
8094288,395,0
8096288,410,0
8098288,416,0
8100288,410,0
8102288,396,0
8104288,380,0
8106288,371,0
8108288,373,0
8110288,386,0
8112288,402,0
8114280,413,0
8116288,412,0
8118280,400,0
8120288,384,0
8122288,372,0
8124288,372,0
8126288,383,0
8128288,400,0
8130288,412,0
8132288,415,0
8134288,406,0
8136288,390,0
8138288,377,0
8140288,374,0
8142280,382,0
8144288,399,0
8146288,415,0
8148288,421,0
8150280,415,0
8152280,399,0
8154280,382,0
8156288,373,0
8158280,377,0
8160288,390,0
8162280,406,0
8164288,416,0
8166288,413,0
8168280,400,0
8170288,383,0
8172288,372,0
8174288,372,0
8176288,383,0
8178288,399,0
8180280,410,0
8182280,411,0
8184280,400,0
8186280,382,0
8188280,368,0
8190280,363,0
8192280,372,0
8194280,389,0
8196280,405,0
8198280,413,0
8200280,408,0
8202288,395,0
8204292,382,0
8206280,377,0
8208280,383,0
8210280,398,0
8212288,414,0
8214280,422,0
8216288,417,0
8218280,402,0
8220280,385,0
8222288,374,0
8224288,375,0
8226280,387,0
8228288,403,0
8230280,415,0
8232288,415,0
8234280,404,0
8236288,388,0
8238280,375,0
8240288,375,0
8242280,387,0
8244280,406,0
8246280,423,0
8248280,430,0
8250288,425,0
8252280,409,0
8254288,393,0
8256288,386,0
8258280,390,0
8260288,403,0
8262280,417,0
8264288,424,0
8266280,419,0
8268288,405,0
8270288,388,0
8272288,377,0
8274288,378,0
8276280,389,0
8278288,404,0
8280288,415,0
8282288,415,0
8284288,403,0
8286280,386,0
8288280,374,0
8290280,374,0
8292288,384,0
8294288,401,0
8296288,414,0
8298280,417,0
8300288,409,0
8302280,393,0
8304288,378,0
8306288,374,0
8308288,382,0
8310288,398,0
8312288,414,0
8314288,420,0
8316288,415,0
8318288,399,0
8320280,383,0
8322280,373,0
8324288,375,0
8326280,387,0
8328280,402,0
8330280,411,0
8332280,408,0
8334288,395,0
8336288,378,0
8338280,367,0
8340288,366,0
8342288,376,0
8344288,393,0
8346288,406,0
8348280,409,0
8350288,400,0
8352288,383,0
8354288,368,0
8356288,363,0
8358280,368,0
8360288,379,0
8362280,388,0
8364288,389,0
8366288,380,0
8368288,365,0
8370280,355,0
8372280,358,0
8374280,380,0
8376280,418,0
8378288,465,0
8380288,508,0
8382288,545,0
8384288,578,0
8386288,609,0
8388288,647,0
8390280,693,0
8392288,727,0
8394288,728,0
8396288,728,0
8398288,722,0
8400288,671,0
8402280,582,0
8404288,486,0
8406280,410,0
8408288,361,0
8410280,335,0
8412288,320,0
8414280,306,0
8416280,289,0
8418280,270,0
8420288,256,0
8422288,255,0
8424288,270,0
8426288,297,0
8428288,326,0
8430288,347,0
8432288,355,0
8434288,351,0
8436288,341,0
8438288,336,0
8440288,342,0
8442288,358,0
8444288,378,0
8446288,394,0
8448288,397,0
8450280,388,0
8452288,373,0
8454288,361,0
8456280,359,0
8458280,368,0
8460280,384,0
8462288,399,0
8464288,403,0
8466280,396,0
8468288,381,0
8470288,367,0
8472288,362,0
8474288,369,0
8476288,385,0
8478288,402,0
8480288,410,0
8482280,406,0
8484288,392,0
8486288,376,0
8488288,366,0
8490288,369,0
8492288,381,0
8494288,398,0
8496288,411,0
8498280,412,0
8500280,401,0
8502280,386,0
8504280,374,0
8506288,373,0
8508288,385,0
8510288,402,0
8512288,417,0
8514280,421,0
8516288,414,0
8518288,398,0
8520288,385,0
8522280,381,0
8524288,389,0
8526288,406,0
8528280,422,0
8530288,429,0
8532280,425,0
8534288,410,0
8536288,394,0
8538288,385,0
8540288,389,0
8542280,404,0
8544280,422,0
8546280,434,0
8548288,434,0
8550288,422,0
8552288,406,0
8554288,395,0
8556288,395,0
8558288,406,0
8560288,424,0
8562288,437,0
8564288,441,0
8566288,434,0
8568288,419,0
8570288,407,0
8572288,405,0
8574288,416,0
8576288,436,0
8578288,456,0
8580288,467,0
8582288,464,0
8584280,452,0
8586280,438,0
8588280,431,0
8590288,436,0
8592288,452,0
8594288,470,0
8596288,480,0
8598288,479,0
8600280,468,0
8602280,451,0
8604288,440,0
8606280,441,0
8608288,453,0
8610280,470,0
8612288,484,0
8614280,486,0
8616288,476,0
8618288,460,0
8620288,446,0
8622288,443,0
8624288,452,0
8626280,469,0
8628280,485,0
8630280,490,0
8632288,483,0
8634288,467,0
8636288,450,0
8638288,442,0
8640288,446,0
8642280,461,0
8644288,476,0
8646288,484,0
8648288,479,0
8650288,465,0
8652288,447,0
8654288,436,0
8656288,436,0
8658288,448,0
8660288,464,0
8662288,474,0
8664288,473,0
8666288,460,0
8668288,440,0
8670280,425,0
8672288,422,0
8674280,430,0
8676288,445,0
8678288,459,0
8680280,461,0
8682280,451,0
8684288,432,0
8686288,414,0
8688288,404,0
8690288,407,0
8692288,418,0
8694288,431,0
8696288,434,0
8698288,426,0
8700288,408,0
8702288,389,0
8704280,376,0
8706288,375,0
8708288,385,0
8710288,399,0
8712280,406,0
8714280,402,0
8716280,387,0
8718288,367,0
8720288,354,0
8722288,352,0
8724288,362,0
8726288,378,0
8728288,389,0
8730288,391,0
8732288,379,0
8734288,360,0
8736288,344,0
8738288,337,0
8740288,342,0
8742288,358,0
8744288,373,0
8746288,380,0
8748288,375,0
8750288,360,0
8752288,344,0
8754280,335,0
8756288,338,0
8758280,352,0
8760288,368,0
8762288,378,0
8764288,376,0
8766288,364,0
8768288,347,0
8770280,335,0
8772288,335,0
8774288,347,0
8776288,364,0
8778288,378,0
8780288,380,0
8782288,370,0
8784288,352,0
8786288,337,0
8788288,332,0
8790288,340,0
8792280,355,0
8794280,371,0
8796288,378,0
8798280,372,0
8800288,358,0
8802280,343,0
8804288,336,0
8806288,341,0
8808288,356,0
8810280,372,0
8812288,382,0
8814288,380,0
8816288,367,0
8818288,350,0
8820288,338,0
8822288,337,0
8824288,347,0
8826288,363,0
8828288,376,0
8830288,378,0
8832280,367,0
8834288,350,0
8836288,336,0
8838288,332,0
8840280,341,0
8842280,357,0
8844280,372,0
8846288,378,0
8848288,370,0
8850280,354,0
8852288,338,0
8854288,330,0
8856288,336,0
8858288,351,0
8860280,368,0
8862288,376,0
8864288,373,0
8866288,360,0
8868288,344,0
8870288,334,0
8872288,336,0
8874288,349,0
8876288,366,0
8878288,378,0
8880288,378,0
8882280,366,0
8884280,349,0
8886280,335,0
8888288,332,0
8890288,341,0
8892288,357,0
8894288,371,0
8896288,376,0
8898288,369,0
8900288,353,0
8902288,338,0
8904288,331,0
8906288,336,0
8908288,350,0
8910280,364,0
8912288,370,0
8914288,364,0
8916288,349,0
8918288,332,0
8920280,323,0
8922288,325,0
8924288,338,0
8926280,354,0
8928288,364,0
8930280,362,0
8932288,350,0
8934288,332,0
8936280,318,0
8938280,316,0
8940280,327,0
8942288,344,0
8944288,357,0
8946288,359,0
8948288,349,0
8950288,332,0
8952288,317,0
8954280,312,0
8956280,319,0
8958280,334,0
8960280,350,0
8962288,356,0
8964288,350,0
8966288,334,0
8968280,317,0
8970280,307,0
8972280,309,0
8974288,322,0
8976288,339,0
8978288,349,0
8980288,348,0
8982288,336,0
8984288,319,0
8986288,308,0
8988288,307,0
8990288,319,0
8992280,336,0
8994288,349,0
8996288,350,0
8998288,338,0
9000288,320,0
9002288,305,0
9004288,300,0
9006280,307,0
9008280,324,0
9010288,339,0
9012288,346,0
9014280,340,0
9016280,325,0
9018288,309,0
9020288,301,0
9022288,305,0
9024288,319,0
9026288,336,0
9028288,345,0
9030288,342,0
9032288,329,0
9034288,312,0
9036288,302,0
9038288,303,0
9040288,316,0
9042288,334,0
9044288,348,0
9046288,350,0
9048288,340,0
9050288,324,0
9052288,311,0
9054280,309,0
9056288,319,0
9058280,336,0
9060288,352,0
9062288,356,0
9064280,348,0
9066288,332,0
9068288,316,0
9070288,309,0
9072288,316,0
9074288,331,0
9076288,347,0
9078288,356,0
9080288,353,0
9082280,340,0
9084288,325,0
9086288,316,0
9088280,320,0
9090288,334,0
9092288,353,0
9094288,364,0
9096280,363,0
9098280,349,0
9100280,329,0
9102288,312,0
9104280,307,0
9106288,314,0
9108280,330,0
9110280,343,0
9112280,346,0
9114280,336,0
9116288,317,0
9118288,300,0
9120280,291,0
9122288,296,0
9124288,311,0
9126288,328,0
9128288,337,0
9130288,333,0
9132288,320,0
9134288,305,0
9136288,297,0
9138280,300,0
9140288,313,0
9142280,331,0
9144288,343,0
9146288,342,0
9148288,330,0
9150288,313,0
9152280,300,0
9154280,299,0
9156280,310,0
9158280,328,0
9160280,343,0
9162280,347,0
9164280,338,0
9166280,323,0
9168288,308,0
9170288,303,0
9172280,311,0
9174280,326,0
9176280,341,0
9178288,347,0
9180288,341,0
9182280,324,0
9184288,307,0
9186280,297,0
9188288,300,0
9190288,315,0
9192280,332,0
9194280,342,0
9196280,341,0
9198288,329,0
9200288,312,0
9202288,298,0
9204288,294,0
9206288,301,0
9208288,314,0
9210280,323,0
9212280,324,0
9214280,317,0
9216280,308,0
9218288,309,0
9220288,326,0
9222280,361,0
9224280,407,0
9226280,457,0
9228280,501,0
9230288,538,0
9232288,567,0
9234288,591,0
9236288,619,0
9238288,649,0
9240288,664,0
9242288,645,0
9244280,587,0
9246288,500,0
9248288,401,0
9250280,312,0
9252288,248,0
9254288,214,0
9256288,205,0
9258288,212,0
9260288,221,0
9262288,222,0
9264288,215,0
9266280,205,0
9268280,200,0
9270280,207,0
9272280,227,0
9274280,256,0
9276288,282,0
9278288,296,0
9280288,296,0
9282280,287,0
9284288,277,0
9286288,276,0
9288288,286,0
9290288,306,0
9292288,327,0
9294288,340,0
9296288,339,0
9298288,327,0
9300280,311,0
9302280,301,0
9304280,304,0
9306280,316,0
9308288,334,0
9310280,346,0
9312288,346,0
9314280,334,0
9316288,317,0
9318280,304,0
9320280,302,0
9322288,312,0
9324288,330,0
9326288,345,0
9328288,351,0
9330288,344,0
9332288,328,0
9334288,313,0
9336280,307,0
9338280,314,0
9340280,330,0
9342288,348,0
9344288,357,0
9346288,353,0
9348288,340,0
9350288,323,0
9352280,314,0
9354288,317,0
9356280,331,0
9358280,347,0
9360280,358,0
9362288,358,0
9364288,347,0
9366288,331,0
9368288,320,0
9370288,320,0
9372288,333,0
9374288,351,0
9376280,367,0
9378288,370,0
9380288,361,0
9382288,345,0
9384288,331,0
9386288,326,0
9388288,335,0
9390288,352,0
9392288,368,0
9394280,376,0
9396288,372,0
9398288,358,0
9400288,343,0
9402280,336,0
9404280,340,0
9406280,355,0
9408280,374,0
9410288,385,0
9412280,384,0
9414280,373,0
9416280,357,0
9418280,346,0
9420280,347,0
9422280,360,0
9424288,379,0
9426288,393,0
9428288,396,0
9430288,386,0
9432280,369,0
9434280,355,0
9436288,351,0
9438280,360,0
9440288,377,0
9442280,393,0
9444288,400,0
9446288,394,0
9448280,379,0
9450280,364,0
9452280,358,0
9454280,363,0
9456280,379,0
9458280,396,0
9460280,405,0
9462280,403,0
9464288,391,0
9466280,375,0
9468280,364,0
9470280,365,0
9472280,378,0
9474288,395,0
9476288,408,0
9478288,409,0
9480280,399,0
9482288,382,0
9484280,369,0
9486280,366,0
9488280,375,0
9490288,392,0
9492280,407,0
9494280,411,0
9496280,403,0
9498280,387,0
9500280,372,0
9502280,366,0
9504280,373,0
9506288,389,0
9508288,405,0
9510288,414,0
9512280,409,0
9514280,395,0
9516280,377,0
9518280,366,0
9520280,367,0
9522288,379,0
9524288,393,0
9526280,402,0
9528288,399,0
9530280,384,0
9532280,364,0
9534280,348,0
9536280,342,0
9538288,349,0
9540288,363,0
9542288,375,0
9544280,376,0
9546288,364,0
9548288,344,0
9550288,325,0
9552288,316,0
9554280,320,0
9556280,335,0
9558280,350,0
9560280,356,0
9562280,349,0
9564288,332,0
9566280,314,0
9568288,303,0
9570288,305,0
9572280,318,0
9574280,335,0
9576280,345,0
9578280,344,0
9580280,331,0
9582280,313,0
9584280,300,0
9586280,298,0
9588280,309,0
9590280,327,0
9592280,341,0
9594280,345,0
9596280,335,0
9598280,317,0
9600288,302,0
9602288,297,0
9604288,306,0
9606288,324,0
9608280,341,0
9610280,349,0
9612280,344,0
9614288,330,0
9616288,314,0
9618288,306,0
9620288,311,0
9622280,326,0
9624280,343,0
9626280,352,0
9628288,350,0
9630288,337,0
9632288,320,0
9634288,309,0
9636288,310,0
9638288,322,0
9640288,341,0
9642288,355,0
9644288,358,0
9646288,347,0
9648288,330,0
9650280,315,0
9652288,312,0
9654280,321,0
9656288,338,0
9658288,354,0
9660288,360,0
9662288,353,0
9664280,337,0
9666288,322,0
9668288,316,0
9670288,323,0
9672288,340,0
9674288,358,0
9676288,369,0
9678288,367,0
9680288,354,0
9682288,338,0
9684288,327,0
9686288,330,0
9688288,343,0
9690288,361,0
9692288,374,0
9694280,374,0
9696288,362,0
9698280,344,0
9700288,329,0
9702288,325,0
9704280,335,0
9706280,351,0
9708280,365,0
9710288,369,0
9712288,361,0
9714288,344,0
9716280,328,0
9718280,322,0
9720280,328,0
9722280,344,0
9724280,361,0
9726280,371,0
9728280,367,0
9730288,354,0
9732288,337,0
9734288,327,0
9736280,330,0
9738288,344,0
9740280,363,0
9742280,375,0
9744280,376,0
9746280,365,0
9748280,348,0
9750280,336,0
9752280,334,0
9754280,345,0
9756288,361,0
9758288,375,0
9760280,378,0
9762288,368,0
9764288,350,0
9766288,334,0
9768288,327,0
9770288,335,0
9772288,351,0
9774280,368,0
9776280,376,0
9778288,372,0
9780288,356,0
9782280,339,0
9784288,330,0
9786280,334,0
9788280,349,0
9790280,367,0
9792280,379,0
9794288,379,0
9796280,368,0
9798280,351,0
9800280,339,0
9802280,339,0
9804280,351,0
9806280,369,0
9808280,384,0
9810280,387,0
9812280,377,0
9814280,359,0
9816280,343,0
9818280,337,0
9820288,344,0
9822288,360,0
9824288,377,0
9826288,385,0
9828280,379,0
9830280,363,0
9832280,346,0
9834288,337,0
9836280,342,0
9838288,357,0
9840288,376,0
9842288,387,0
9844288,386,0
9846288,373,0
9848288,357,0
9850288,346,0
9852288,346,0
9854288,358,0
9856288,376,0
9858288,390,0
9860288,393,0
9862288,383,0
9864280,367,0
9866280,353,0
9868280,350,0
9870288,360,0
9872288,377,0
9874288,392,0
9876288,399,0
9878288,393,0
9880288,378,0
9882288,363,0
9884280,356,0
9886288,361,0
9888288,377,0
9890288,396,0
9892288,406,0
9894288,404,0
9896288,390,0
9898288,374,0
9900288,363,0
9902288,365,0
9904288,379,0
9906280,399,0
9908288,414,0
9910280,417,0
9912288,408,0
9914280,392,0
9916280,379,0
9918280,377,0
9920280,387,0
9922288,405,0
9924288,419,0
9926288,424,0
9928288,416,0
9930288,399,0
9932288,384,0
9934288,378,0
9936288,385,0
9938288,402,0
9940288,419,0
9942288,427,0
9944280,422,0
9946288,407,0
9948288,390,0
9950280,380,0
9952288,384,0
9954280,400,0
9956288,421,0
9958288,435,0
9960280,435,0
9962280,421,0
9964288,400,0
9966288,383,0
9968288,377,0
9970288,384,0
9972280,400,0
9974280,413,0
9976280,415,0
9978280,404,0
9980280,385,0
9982280,368,0
9984280,361,0
9986288,368,0
9988288,383,0
9990288,400,0
9992280,408,0
9994288,403,0
9996280,389,0
9998280,372,0
10000280,362,0
10002288,365,0
10004288,380,0
10006288,398,0
10008288,409,0
10010288,408,0
10012288,396,0
10014288,379,0
10016280,367,0
10018288,367,0
10020288,378,0
10022288,397,0
10024280,411,0
10026288,413,0
10028288,403,0
10030288,386,0
10032288,371,0
10034288,366,0
10036288,374,0
10038280,391,0
10040288,408,0
10042288,416,0
10044288,410,0
10046288,393,0
10048288,375,0
10050288,366,0
10052288,370,0
10054288,386,0
10056280,404,0
10058288,416,0
10060288,414,0
10062288,400,0
10064288,380,0
10066288,364,0
10068288,360,0
10070288,367,0
10072280,380,0
10074280,391,0
10076288,392,0
10078280,384,0
10080288,374,0
10082280,374,0
10084288,390,0
10086288,424,0
10088280,471,0
10090280,522,0
10092288,570,0
10094288,612,0
10096280,648,0
10098280,682,0
10100280,718,0
10102280,728,0
10104280,728,0
10106280,728,0
10108280,723,0
10110280,674,0
10112280,583,0
10114280,482,0
10116280,398,0
10118280,341,0
10120288,311,0
10122288,301,0
10124280,297,0
10126280,291,0
10128280,280,0
10130280,267,0
10132280,263,0
10134280,272,0
10136280,295,0
10138280,325,0
10140288,352,0
10142280,365,0
10144280,365,0
10146288,354,0
10148280,342,0
10150280,339,0
10152280,348,0
10154280,368,0
10156280,388,0
10158280,398,0
10160280,395,0
10162288,381,0
10164280,364,0
10166280,355,0
10168288,357,0
10170280,371,0
10172280,389,0
10174280,401,0
10176280,402,0
10178288,390,0
10180280,373,0
10182280,359,0
10184280,357,0
10186280,368,0
10188280,386,0
10190280,401,0
10192280,406,0
10194280,398,0
10196280,381,0
10198280,366,0
10200280,360,0
10202280,368,0
10204288,385,0
10206288,402,0
10208288,410,0
10210288,404,0
10212280,389,0
10214280,371,0
10216280,361,0
10218280,364,0
10220280,377,0
10222280,395,0
10224280,406,0
10226280,404,0
10228280,391,0
10230280,373,0
10232280,360,0
10234280,359,0
10236280,371,0
10238280,389,0
10240288,404,0
10242280,406,0
10244280,396,0
10246288,378,0
10248280,362,0
10250280,357,0
10252280,365,0
10254288,381,0
10256280,397,0
10258288,402,0
10260280,394,0
10262288,377,0
10264288,360,0
10266288,351,0
10268280,355,0
10270288,370,0
10272288,387,0
10274280,398,0
10276288,395,0
10278288,380,0
10280288,360,0
10282288,347,0
10284280,346,0
10286288,358,0
10288288,375,0
10290280,389,0
10292280,392,0
10294280,382,0
10296280,365,0
10298288,351,0
10300288,347,0
10302288,355,0
10304288,373,0
10306288,389,0
10308288,396,0
10310288,389,0
10312288,373,0
10314288,356,0
10316288,349,0
10318288,354,0
10320288,370,0
10322288,387,0
10324288,396,0
10326288,393,0
10328288,378,0
10330288,359,0
10332288,347,0
10334280,347,0
10336288,360,0
10338280,378,0
10340288,391,0
10342288,390,0
10344280,377,0
10346288,358,0
10348288,343,0
10350288,339,0
10352288,348,0
10354288,365,0
10356288,380,0
10358288,384,0
10360288,374,0
10362280,357,0
10364280,340,0
10366288,333,0
10368288,339,0
10370288,354,0
10372288,371,0
10374288,380,0
10376280,374,0
10378288,358,0
10380280,340,0
10382288,328,0
10384288,329,0
10386288,341,0
10388288,357,0
10390288,367,0
10392280,364,0
10394280,349,0
10396288,328,0
10398288,311,0
10400280,306,0
10402288,313,0
10404288,327,0
10406280,338,0
10408288,337,0
10410288,323,0
10412288,302,0
10414288,284,0
10416288,275,0
10418280,280,0
10420280,295,0
10422280,310,0
10424288,315,0
10426280,306,0
10428288,288,0
10430288,269,0
10432288,258,0
10434288,260,0
10436288,274,0
10438288,293,0
10440288,305,0
10442288,304,0
10444288,290,0
10446288,273,0
10448288,260,0
10450288,260,0
10452288,272,0
10454288,291,0
10456288,306,0
10458288,309,0
10460288,299,0
10462280,282,0
10464288,267,0
10466280,263,0
10468288,272,0
10470288,291,0
10472280,308,0
10474280,315,0
10476280,309,0
10478280,294,0
10480280,277,0
10482280,270,0
10484280,275,0
10486280,292,0
10488288,311,0
10490288,322,0
10492280,320,0
10494288,306,0
10496288,289,0
10498280,277,0
10500280,278,0
10502288,292,0
10504280,312,0
10506280,328,0
10508280,331,0
10510288,321,0
10512280,304,0
10514288,290,0
10516288,288,0
10518288,298,0
10520288,317,0
10522288,333,0
10524280,340,0
10526288,332,0
10528288,315,0
10530280,299,0
10532288,291,0
10534288,296,0
10536288,313,0
10538288,332,0
10540288,342,0
10542288,339,0
10544288,324,0
10546280,306,0
10548288,295,0
10550280,296,0
10552280,309,0
10554288,328,0
10556288,341,0
10558288,342,0
10560288,331,0
10562280,312,0
10564288,298,0
10566280,296,0
10568288,307,0
10570280,325,0
10572288,341,0
10574288,346,0
10576280,338,0
10578288,322,0
10580280,305,0
10582288,299,0
10584288,305,0
10586288,321,0
10588288,339,0
10590280,348,0
10592280,344,0
10594280,329,0
10596288,311,0
10598288,301,0
10600280,303,0
10602288,317,0
10604288,336,0
10606288,349,0
10608288,349,0
10610288,338,0
10612288,320,0
10614288,306,0
10616288,303,0
10618288,313,0
10620288,329,0
10622288,343,0
10624288,345,0
10626288,335,0
10628288,318,0
10630288,301,0
10632280,296,0
10634280,303,0
10636280,320,0
10638288,338,0
10640288,347,0
10642288,342,0
10644288,328,0
10646288,312,0
10648280,304,0
10650280,309,0
10652280,324,0
10654280,343,0
10656288,355,0
10658280,354,0
10660288,341,0
10662280,324,0
10664288,311,0
10666288,311,0
10668288,324,0
10670288,343,0
10672288,358,0
10674280,361,0
10676280,351,0
10678280,334,0
10680280,319,0
10682288,313,0
10684288,320,0
10686288,336,0
10688288,352,0
10690280,357,0
10692288,349,0
10694280,333,0
10696288,316,0
10698288,308,0
10700288,314,0
10702288,330,0
10704288,349,0
10706288,360,0
10708288,358,0
10710288,343,0
10712288,325,0
10714288,313,0
10716288,314,0
10718280,328,0
10720288,348,0
10722280,363,0
10724288,366,0
10726288,356,0
10728288,338,0
10730288,323,0
10732288,318,0
10734288,328,0
10736288,346,0
10738288,364,0
10740288,371,0
10742288,365,0
10744288,350,0
10746288,335,0
10748288,327,0
10750288,333,0
10752280,349,0
10754288,366,0
10756280,375,0
10758288,372,0
10760280,357,0
10762280,340,0
10764280,330,0
10766288,332,0
10768288,347,0
10770280,366,0
10772288,382,0
10774288,385,0
10776288,376,0
10778288,360,0
10780280,346,0
10782288,344,0
10784288,354,0
10786288,372,0
10788288,387,0
10790288,391,0
10792280,384,0
10794280,368,0
10796288,353,0
10798288,347,0
10800288,353,0
10802280,368,0
10804280,385,0
10806280,395,0
10808288,392,0
10810288,379,0
10812288,364,0
10814288,356,0
10816288,359,0
10818280,373,0
10820288,390,0
10822288,399,0
10824288,396,0
10826288,381,0
10828288,361,0
10830288,346,0
10832288,344,0
10834288,355,0
10836288,373,0
10838288,387,0
10840288,389,0
10842288,378,0
10844288,360,0
10846280,343,0
10848288,336,0
10850280,343,0
10852288,359,0
10854288,375,0
10856280,383,0
10858288,378,0
10860288,362,0
10862288,344,0
10864288,334,0
10866288,338,0
10868288,352,0
10870288,371,0
10872288,383,0
10874288,382,0
10876288,369,0
10878288,352,0
10880280,339,0
10882280,339,0
10884288,350,0
10886288,367,0
10888280,381,0
10890280,384,0
10892280,373,0
10894288,356,0
10896288,342,0
10898280,338,0
10900288,346,0
10902288,364,0
10904288,381,0
10906288,389,0
10908280,383,0
10910288,368,0
10912288,352,0
10914288,344,0
10916288,349,0
10918288,364,0
10920288,382,0
10922288,392,0
10924288,389,0
10926288,372,0
10928288,350,0
10930280,333,0
10932288,328,0
10934280,338,0
10936288,356,0
10938288,373,0
10940288,384,0
10942288,389,0
10944288,393,0
10946288,404,0
10948288,430,0
10950288,475,0
10952280,535,0
10954280,600,0
10956280,659,0
10958280,702,0
10960288,724,0
10962288,727,0
10964288,726,0
10966288,723,0
10968288,697,0
10970288,641,0
10972288,564,0
10974280,479,0
10976288,398,0
10978280,332,0
10980288,287,0
10982288,267,0
10984288,270,0
10986288,287,0
10988288,304,0
10990288,314,0
10992288,314,0
10994288,310,0
10996288,310,0
10998280,321,0
11000288,344,0
11002288,372,0
11004288,398,0
11006280,411,0
11008280,411,0
11010288,400,0
11012288,389,0
11014288,386,0
11016288,396,0
11018280,415,0
11020280,433,0
11022288,443,0
11024288,439,0
11026288,425,0
11028288,408,0
11030288,398,0
11032280,401,0
11034280,416,0
11036288,434,0
11038288,448,0
11040280,448,0
11042288,437,0
11044288,419,0
11046288,407,0
11048288,406,0
11050288,418,0
11052288,437,0
11054280,453,0
11056280,457,0
11058288,448,0
11060288,431,0
11062280,416,0
11064280,411,0
11066288,420,0
11068288,439,0
11070288,457,0
11072288,465,0
11074288,460,0
11076288,445,0
11078288,428,0
11080288,420,0
11082288,425,0
11084288,441,0
11086288,461,0
11088288,474,0
11090288,474,0
11092280,463,0
11094280,446,0
11096280,434,0
11098280,434,0
11100288,446,0
11102280,464,0
11104288,479,0
11106280,483,0
11108280,475,0
11110280,458,0
11112280,444,0
11114280,441,0
11116280,451,0
11118280,471,0
11120280,489,0
11122280,499,0
11124280,496,0
11126280,483,0
11128280,468,0
11130280,461,0
11132280,467,0
11134280,483,0
11136280,501,0
11138288,512,0
11140280,509,0
11142280,494,0
11144280,476,0
11146288,464,0
11148280,465,0
11150280,480,0
11152280,501,0
11154288,518,0
11156288,521,0
11158280,511,0
11160280,494,0
11162280,480,0
11164288,477,0
11166288,487,0
11168288,506,0
11170288,523,0
11172288,529,0
11174288,522,0
11176280,507,0
11178280,492,0
11180280,485,0
11182280,492,0
11184280,510,0
11186288,529,0
11188288,538,0
11190280,534,0
11192288,517,0
11194280,498,0
11196280,487,0
11198280,488,0
11200280,502,0
11202288,522,0
11204288,538,0
11206288,540,0
11208288,529,0
11210288,512,0
11212288,497,0
11214288,493,0
11216288,503,0
11218288,520,0
11220288,535,0
11222288,539,0
11224280,529,0
11226288,509,0
11228288,490,0
11230280,481,0
11232288,484,0
11234280,496,0
11236288,507,0
11238288,507,0
11240280,494,0
11242288,471,0
11244288,447,0
11246288,430,0
11248288,427,0
11250288,436,0
11252288,449,0
11254288,457,0
11256280,451,0
11258280,434,0
11260280,411,0
11262280,393,0
11264280,389,0
11266288,396,0
11268288,411,0
11270288,422,0
11272280,423,0
11274280,410,0
11276280,390,0
11278288,372,0
11280288,364,0
11282280,369,0
11284288,384,0
11286288,399,0
11288288,404,0
11290288,394,0
11292288,374,0
11294288,352,0
11296288,338,0
11298288,338,0
11300288,349,0
11302288,364,0
11304280,370,0
11306280,362,0
11308288,344,0
11310288,321,0
11312288,306,0
11314280,305,0
11316288,317,0
11318280,337,0
11320288,353,0
11322288,357,0
11324288,348,0
11326288,331,0
11328288,316,0
11330288,312,0
11332288,322,0
11334288,343,0
11336288,364,0
11338288,375,0
11340288,372,0
11342288,358,0
11344288,343,0
11346288,338,0
11348288,347,0
11350288,367,0
11352280,390,0
11354280,404,0
11356288,405,0
11358280,394,0
11360288,378,0
11362280,368,0
11364288,370,0
11366288,385,0
11368280,405,0
11370288,422,0
11372288,426,0
11374288,417,0
11376288,402,0
11378288,390,0
11380288,389,0
11382288,400,0
11384288,421,0
11386280,440,0
11388280,447,0
11390288,441,0
11392280,426,0
11394288,410,0
11396288,404,0
11398288,411,0
11400280,428,0
11402288,447,0
11404280,457,0
11406280,454,0
11408280,440,0
11410288,424,0
11412288,415,0
11414288,418,0
11416280,433,0
11418280,452,0
11420288,466,0
11422288,466,0
11424280,453,0
11426280,433,0
11428280,418,0
11430288,414,0
11432280,423,0
11434280,440,0
11436280,455,0
11438280,460,0
11440280,451,0
11442288,433,0
11444288,416,0
11446280,409,0
11448288,415,0
11450280,431,0
11452280,449,0
11454280,459,0
11456280,455,0
11458280,442,0
11460280,428,0
11462280,421,0
11464280,427,0
11466280,446,0
11468280,470,0
11470280,489,0
11472288,493,0
11474288,482,0
11476288,462,0
11478288,447,0
11480288,442,0
11482288,451,0
11484288,467,0
11486280,479,0
11488288,480,0
11490280,469,0
11492288,449,0
11494288,432,0
11496280,426,0
11498288,435,0
11500288,452,0
11502288,468,0
11504288,474,0
11506280,466,0
11508280,447,0
11510280,426,0
11512280,414,0
11514280,416,0
11516280,429,0
11518280,445,0
11520280,455,0
11522288,452,0
11524288,437,0
11526288,417,0
11528280,404,0
11530280,404,0
11532280,417,0
11534288,436,0
11536288,450,0
11538288,452,0
11540288,441,0
11542288,422,0
11544288,404,0
11546288,398,0
11548288,407,0
11550288,425,0
11552288,441,0
11554288,446,0
11556288,438,0
11558288,421,0
11560288,404,0
11562288,396,0
11564288,402,0
11566288,420,0
11568288,440,0
11570280,452,0
11572288,451,0
11574280,437,0
11576280,420,0
11578288,408,0
11580288,409,0
11582288,421,0
11584288,436,0
11586288,445,0
11588288,444,0
11590288,430,0
11592280,412,0
11594288,398,0
11596288,395,0
11598288,406,0
11600288,425,0
11602288,442,0
11604288,447,0
11606288,439,0
11608288,422,0
11610288,405,0
11612288,399,0
11614280,406,0
11616288,425,0
11618280,446,0
11620288,459,0
11622288,458,0
11624280,443,0
11626288,426,0
11628288,416,0
11630288,417,0
11632288,431,0
11634280,450,0
11636288,464,0
11638288,465,0
11640288,454,0
11642288,436,0
11644288,422,0
11646288,421,0
11648280,434,0
11650288,456,0
11652288,475,0
11654288,482,0
11656280,474,0
11658288,456,0
11660280,437,0
11662280,428,0
11664280,432,0
11666288,447,0
11668288,463,0
11670288,470,0
11672280,464,0
11674280,448,0
11676288,429,0
11678288,417,0
11680288,417,0
11682280,431,0
11684288,448,0
11686288,460,0
11688288,459,0
11690288,446,0
11692288,428,0
11694288,414,0
11696288,411,0
11698280,421,0
11700288,438,0
11702280,452,0
11704288,457,0
11706280,448,0
11708288,432,0
11710280,418,0
11712280,413,0
11714288,422,0
11716280,440,0
11718280,459,0
11720280,468,0
11722280,464,0
11724288,449,0
11726288,432,0
11728288,423,0
11730288,429,0
11732280,446,0
11734280,466,0
11736280,478,0
11738280,477,0
11740288,465,0
11742280,448,0
11744288,435,0
11746280,436,0
11748280,450,0
11750280,469,0
11752280,483,0
11754280,485,0
11756280,475,0
11758280,458,0
11760280,443,0
11762280,440,0
11764280,450,0
11766280,469,0
11768280,485,0
11770280,490,0
11772280,480,0
11774280,461,0
11776288,442,0
11778288,436,0
11780288,448,0
11782288,477,0
11784288,515,0
11786288,552,0
11788280,579,0
11790280,598,0
11792280,618,0
11794280,648,0
11796280,695,0
11798280,728,0
11800280,729,0
11802288,730,0
11804288,730,0
11806288,730,0
11808280,728,0
11810288,722,0
11812288,677,0
11814288,613,0
11816280,554,0
11818280,503,0
11820280,459,0
11822280,416,0
11824280,379,0
11826288,353,0
11828288,344,0
11830280,355,0
11832288,380,0
11834280,408,0
11836288,430,0
11838280,438,0
11840280,433,0
11842288,424,0
11844288,422,0
11846288,431,0
11848288,452,0
11850288,476,0
11852288,494,0
11854288,499,0
11856288,490,0
11858288,476,0
11860288,465,0
11862288,466,0
11864288,478,0
11866288,498,0
11868288,513,0
11870280,519,0
11872288,510,0
11874280,491,0
11876280,473,0
11878280,466,0
11880280,472,0
11882288,490,0
11884288,508,0
11886288,517,0
11888288,514,0
11890288,499,0
11892288,481,0
11894288,471,0
11896288,473,0
11898280,488,0
11900288,507,0
11902288,521,0
11904280,522,0
11906288,510,0
11908288,494,0
11910288,482,0
11912280,483,0
11914288,496,0
11916280,516,0
11918280,533,0
11920280,538,0
11922288,529,0
11924288,512,0
11926288,497,0
11928288,493,0
11930288,502,0
11932288,520,0
11934288,538,0
11936280,545,0
11938288,540,0
11940280,524,0
11942280,506,0
11944280,498,0
11946280,503,0
11948280,518,0
11950280,536,0
11952280,547,0
11954288,544,0
11956288,529,0
11958288,509,0
11960288,495,0
11962280,495,0
11964288,508,0
11966288,526,0
11968280,541,0
11970288,543,0
11972280,533,0
11974280,515,0
11976280,500,0
11978280,497,0
11980280,509,0
11982280,531,0
11984280,552,0
11986280,564,0
11988280,561,0
11990280,549,0
11992280,535,0
11994280,529,0
11996288,537,0
11998288,555,0
12000288,577,0
12002280,590,0
12004288,590,0
12006288,577,0
12008280,561,0
12010288,550,0
12012288,552,0
12014288,565,0
12016288,583,0
12018288,597,0
12020280,599,0
12022280,588,0
12024280,570,0
12026280,556,0
12028280,553,0
12030280,564,0
12032280,584,0
12034288,603,0
12036288,612,0
12038288,606,0
12040288,589,0
12042280,571,0
12044280,562,0
12046288,567,0
12048288,583,0
12050288,601,0
12052288,611,0
12054280,607,0
12056280,592,0
12058280,574,0
12060280,562,0
12062280,564,0
12064280,577,0
12066288,596,0
12068280,609,0
12070280,610,0
12072280,598,0
12074280,579,0
12076280,563,0
12078280,558,0
12080280,566,0
12082288,582,0
12084288,597,0
12086280,601,0
12088288,590,0
12090288,569,0
12092288,547,0
12094288,535,0
12096280,537,0
12098288,549,0
12100288,562,0
12102288,566,0
12104280,557,0
12106280,535,0
12108280,511,0
12110280,494,0
12112280,491,0
12114280,501,0
12116280,516,0
12118280,525,0
12120280,520,0
12122280,503,0
12124288,481,0
12126280,463,0
12128288,458,0
12130280,467,0
12132280,482,0
12134280,494,0
12136280,496,0
12138280,483,0
12140280,463,0
12142280,445,0
12144280,438,0
12146280,445,0
12148280,461,0
12150280,477,0
12152280,483,0
12154280,476,0
12156280,458,0
12158280,439,0
12160288,427,0
12162288,430,0
12164288,444,0
12166288,462,0
12168280,472,0
12170288,469,0
12172280,453,0
12174280,432,0
12176280,418,0
12178288,416,0
12180288,427,0
12182288,445,0
12184280,459,0
12186280,461,0
12188288,448,0
12190288,429,0
12192280,411,0
12194288,405,0
12196288,412,0
12198288,429,0
12200280,444,0
12202280,449,0
12204280,439,0
12206280,419,0
12208288,398,0
12210280,386,0
12212288,389,0
12214280,404,0
12216288,421,0
12218280,431,0
12220280,428,0
12222280,414,0
12224280,395,0
12226280,382,0
12228280,382,0
12230280,394,0
12232280,412,0
12234280,426,0
12236280,428,0
12238280,416,0
12240280,397,0
12242280,382,0
12244280,377,0
12246280,387,0
12248280,404,0
12250280,420,0
12252288,426,0
12254280,418,0
12256288,401,0
12258288,384,0
12260280,377,0
12262280,382,0
12264280,398,0
12266280,415,0
12268280,424,0
12270280,420,0
12272280,405,0
12274280,387,0
12276280,377,0
12278280,380,0
12280280,395,0
12282280,415,0
12284280,428,0
12286280,428,0
12288288,414,0
12290280,394,0
12292288,378,0
12294288,373,0
12296280,382,0
12298280,399,0
12300280,415,0
12302288,420,0
12304288,411,0
12306288,393,0
12308288,374,0
12310288,365,0
12312288,371,0
12314288,386,0
12316288,403,0
12318288,411,0
12320280,405,0
12322288,388,0
12324288,369,0
12326288,357,0
12328288,359,0
12330288,374,0
12332288,394,0
12334288,407,0
12336288,407,0
12338280,394,0
12340288,374,0
12342280,359,0
12344288,356,0
12346288,366,0
12348288,382,0
12350288,396,0
12352288,398,0
12354288,387,0
12356288,368,0
12358288,352,0
12360280,346,0
12362288,353,0
12364288,370,0
12366288,387,0
12368288,393,0
12370288,386,0
12372288,369,0
12374288,349,0
12376288,338,0
12378288,341,0
12380288,355,0
12382280,374,0
12384288,386,0
12386280,384,0
12388280,371,0
12390280,353,0
12392280,341,0
12394280,341,0
12396288,354,0
12398288,373,0
12400288,389,0
12402288,391,0
12404288,379,0
12406288,359,0
12408288,340,0
12410288,333,0
12412288,340,0
12414288,358,0
12416280,374,0
12418288,379,0
12420288,371,0
12422288,352,0
12424288,333,0
12426280,323,0
12428280,328,0
12430280,346,0
12432280,366,0
12434288,379,0
12436288,377,0
12438280,363,0
12440280,343,0
12442280,328,0
12444288,324,0
12446288,333,0
12448280,348,0
12450288,358,0
12452280,358,0
12454288,345,0
12456288,326,0
12458288,311,0
12460288,308,0
12462288,317,0
12464288,335,0
12466280,350,0
12468288,355,0
12470280,345,0
12472288,327,0
12474288,308,0
12476288,301,0
12478280,308,0
12480280,326,0
12482288,346,0
12484288,356,0
12486288,352,0
12488288,337,0
12490288,318,0
12492288,307,0
12494280,308,0
12496288,321,0
12498288,338,0
12500288,348,0
12502288,347,0
12504288,334,0
12506288,314,0
12508288,300,0
12510280,297,0
12512288,308,0
12514280,328,0
12516288,345,0
12518288,350,0
12520280,342,0
12522280,324,0
12524288,307,0
12526288,300,0
12528280,307,0
12530280,324,0
12532280,342,0
12534280,350,0
12536280,344,0
12538280,328,0
12540280,309,0
12542280,299,0
12544280,304,0
12546288,319,0
12548288,336,0
12550288,345,0
12552288,340,0
12554280,321,0
12556280,297,0
12558280,280,0
12560280,280,0
12562288,298,0
12564288,330,0
12566288,366,0
12568288,397,0
12570280,419,0
12572288,438,0
12574280,463,0
12576280,502,0
12578288,558,0
12580280,622,0
12582280,680,0
12584280,719,0
12586280,723,0
12588280,691,0
12590280,616,0
12592280,521,0
12594288,428,0
12596288,357,0
12598280,311,0
12600288,280,0
12602280,254,0
12604280,228,0
12606280,205,0
12608280,191,0
12610288,192,0
12612280,208,0
12614280,232,0
12616280,255,0
12618288,267,0
12620288,266,0
12622280,259,0
12624280,255,0
12626280,261,0
12628280,278,0
12630280,303,0
12632280,325,0
12634280,337,0
12636288,334,0
12638280,321,0
12640288,307,0
12642280,302,0
12644280,311,0
12646280,330,0
12648280,349,0
12650280,360,0
12652280,357,0
12654280,341,0
12656280,322,0
12658280,310,0
12660280,310,0
12662280,322,0
12664280,340,0
12666280,352,0
12668280,353,0
12670280,341,0
12672280,322,0
12674288,307,0
12676280,303,0
12678280,312,0
12680288,330,0
12682288,347,0
12684280,354,0
12686280,347,0
12688280,331,0
12690280,315,0
12692280,306,0
12694280,312,0
12696288,328,0
12698280,345,0
12700288,353,0
12702288,348,0
12704280,332,0
12706288,312,0
12708280,301,0
12710280,302,0
12712280,316,0
12714280,335,0
12716280,348,0
12718280,348,0
12720280,335,0
12722288,317,0
12724288,303,0
12726288,302,0
12728288,313,0
12730280,332,0
12732280,349,0
12734280,355,0
12736280,347,0
12738280,330,0
12740280,314,0
12742280,308,0
12744280,316,0
12746280,333,0
12748280,352,0
12750280,362,0
12752280,358,0
12754280,343,0
12756280,326,0
12758280,317,0
12760288,322,0
12762280,339,0
12764288,359,0
12766288,374,0
12768288,376,0
12770288,365,0
12772280,350,0
12774280,339,0
12776280,340,0
12778280,355,0
12780280,376,0
12782280,394,0
12784280,399,0
12786280,389,0
12788280,371,0
12790280,354,0
12792280,347,0
12794280,355,0
12796280,373,0
12798280,390,0
12800288,397,0
12802280,391,0
12804280,373,0
12806280,354,0
12808280,343,0
12810280,346,0
12812280,360,0
12814288,378,0
12816288,388,0
12818280,385,0
12820288,370,0
12822288,350,0
12824288,337,0
12826288,336,0
12828280,349,0
12830288,369,0
12832288,384,0
12834280,389,0
12836288,380,0
12838288,363,0
12840288,348,0
12842288,345,0
12844288,355,0
12846288,374,0
12848288,392,0
12850280,399,0
12852288,390,0
12854280,371,0
12856280,352,0
12858288,341,0
12860288,345,0
12862288,359,0
12864288,374,0
12866280,381,0
12868288,375,0
12870288,356,0
12872288,333,0
12874288,316,0
12876288,310,0
12878288,317,0
12880288,329,0
12882288,335,0
12884288,327,0
12886288,307,0
12888288,281,0
12890288,260,0
12892288,251,0
12894280,256,0
12896288,271,0
12898280,285,0
12900288,287,0
12902288,276,0
12904280,256,0
12906288,236,0
12908288,226,0
12910288,230,0
12912288,244,0
12914288,259,0
12916288,267,0
12918288,262,0
12920288,246,0
12922288,228,0
12924288,219,0
12926288,223,0
12928288,242,0
12930280,267,0
12932288,286,0
12934288,292,0
12936280,284,0
12938280,269,0
12940280,257,0
12942280,257,0
12944280,269,0
12946288,289,0
12948288,306,0
12950288,312,0
12952280,304,0
12954280,288,0
12956288,274,0
12958288,272,0
12960280,286,0
12962288,310,0
12964288,334,0
12966288,348,0
12968288,348,0
12970288,337,0
12972288,323,0
12974288,317,0
12976288,322,0
12978280,338,0
12980288,358,0
12982280,370,0
12984288,368,0
12986288,351,0
12988288,325,0
12990288,304,0
12992280,295,0
12994288,302,0
12996280,317,0
12998280,327,0
13000280,323,0
13002288,305,0
13004288,278,0
13006280,254,0
13008288,244,0
13010288,252,0
13012288,272,0
13014280,294,0
13016280,306,0
13018280,304,0
13020288,292,0
13022280,278,0
13024288,274,0
13026280,284,0
13028288,307,0
13030288,333,0
13032280,352,0
13034280,356,0
13036280,346,0
13038280,331,0
13040280,321,0
13042280,323,0
13044280,339,0
13046280,360,0
13048280,375,0
13050280,379,0
13052280,369,0
13054280,353,0
13056280,340,0
13058288,338,0
13060288,350,0
13062288,370,0
13064288,389,0
13066288,398,0
13068280,395,0
13070280,384,0
13072280,371,0
13074280,368,0
13076280,379,0
13078280,402,0
13080280,426,0
13082280,442,0
13084280,444,0
13086280,433,0
13088280,418,0
13090288,410,0
13092280,415,0
13094280,432,0
13096280,457,0
13098280,477,0
13100280,485,0
13102280,479,0
13104280,468,0
13106288,460,0
13108288,463,0
13110280,479,0
13112280,503,0
13114288,524,0
13116288,535,0
13118288,532,0
13120288,519,0
13122280,506,0
13124288,502,0
13126280,512,0
13128288,531,0
13130280,550,0
13132288,561,0
13134288,558,0
13136288,544,0
13138280,527,0
13140288,516,0
13142288,519,0
13144288,535,0
13146288,555,0
13148288,569,0
13150280,568,0
13152280,554,0
13154280,533,0
13156288,516,0
13158288,510,0
13160288,520,0
13162280,537,0
13164288,553,0
13166288,559,0
13168288,551,0
13170288,534,0
13172288,519,0
13174288,513,0
13176288,521,0
13178288,537,0
13180288,553,0
13182288,559,0
13184288,551,0
13186288,531,0
13188288,511,0
13190288,500,0
13192280,503,0
13194280,516,0
13196280,535,0
13198288,546,0
13200288,545,0
13202280,532,0
13204288,514,0
13206288,501,0
13208288,501,0
13210288,513,0
13212280,532,0
13214288,546,0
13216288,547,0
13218280,534,0
13220288,513,0
13222288,493,0
13224288,484,0
13226288,490,0
13228288,506,0
13230288,522,0
13232288,528,0
13234280,520,0
13236280,501,0
13238280,480,0
13240280,468,0
13242288,470,0
13244288,484,0
13246288,500,0
13248288,510,0
13250288,507,0
13252288,492,0
13254288,473,0
13256288,459,0
13258288,457,0
13260288,469,0
13262288,486,0
13264288,499,0
13266288,501,0
13268288,489,0
13270288,468,0
13272280,451,0
13274288,444,0
13276288,452,0
13278280,469,0
13280288,486,0
13282280,493,0
13284288,485,0
13286288,466,0
13288288,447,0
13290288,437,0
13292288,440,0
13294288,455,0
13296288,473,0
13298288,483,0
13300288,479,0
13302288,464,0
13304288,444,0
13306288,432,0
13308288,432,0
13310288,445,0
13312280,462,0
13314280,474,0
13316288,474,0
13318288,460,0
13320280,438,0
13322280,420,0
13324280,412,0
13326288,417,0
13328288,430,0
13330280,443,0
13332288,448,0
13334288,445,0
13336288,438,0
13338288,438,0
13340280,453,0
13342288,488,0
13344288,537,0
13346288,593,0
13348288,645,0
13350288,688,0
13352288,719,0
13354288,727,0
13356288,728,0
13358288,729,0
13360288,728,0
13362280,727,0
13364280,715,0
13366280,649,0
13368280,551,0
13370288,450,0
13372288,371,0
13374288,321,0
13376288,301,0
13378280,303,0
13380288,313,0
13382288,318,0
13384288,315,0
13386288,308,0
13388288,302,0
13390288,308,0
13392288,328,0
13394288,356,0
13396288,385,0
13398288,402,0
13400288,404,0
13402288,395,0
13404288,382,0
13406280,376,0
13408288,383,0
13410280,401,0
13412288,423,0
13414288,438,0
13416280,439,0
13418288,426,0
13420288,407,0
13422288,392,0
13424288,389,0
13426288,400,0
13428288,417,0
13430288,430,0
13432280,432,0
13434280,420,0
13436280,402,0
13438288,386,0
13440288,382,0
13442280,392,0
13444288,412,0
13446280,431,0
13448280,439,0
13450280,434,0
13452280,417,0
13454288,400,0
13456288,391,0
13458280,397,0
13460288,415,0
13462288,436,0
13464288,450,0
13466288,450,0
13468280,437,0
13470288,419,0
13472288,407,0
13474280,407,0
13476288,420,0
13478288,439,0
13480288,454,0
13482288,457,0
13484288,447,0
13486288,429,0
13488288,414,0
13490280,410,0
13492280,420,0
13494280,440,0
13496280,459,0
13498280,467,0
13500288,461,0
13502288,444,0
13504288,427,0
13506288,420,0
13508288,425,0
13510288,443,0
13512288,463,0
13514288,476,0
13516288,475,0
13518280,463,0
13520288,447,0
13522280,437,0
13524288,441,0
13526288,455,0
13528288,475,0
13530288,489,0
13532288,491,0
13534280,481,0
13536280,464,0
13538280,449,0
13540288,446,0
13542288,456,0
13544288,473,0
13546288,488,0
13548288,492,0
13550288,482,0
13552288,463,0
13554288,447,0
13556288,440,0
13558288,447,0
13560288,465,0
13562288,483,0
13564288,491,0
13566288,486,0
13568288,470,0
13570288,452,0
13572288,442,0
13574288,446,0
13576280,462,0
13578280,482,0
13580280,497,0
13582288,499,0
13584288,487,0
13586288,470,0
13588288,457,0
13590288,457,0
13592288,470,0
13594280,489,0
13596288,505,0
13598288,510,0
13600280,502,0
13602288,484,0
13604280,468,0
13606288,461,0
13608288,467,0
13610288,483,0
13612288,499,0
13614288,506,0
13616288,498,0
13618280,480,0
13620280,461,0
13622280,448,0
13624280,449,0
13626288,463,0
13628288,479,0
13630288,489,0
13632288,486,0
13634280,471,0
13636288,449,0
13638288,433,0
13640288,428,0
13642288,436,0
13644288,451,0
13646288,462,0
13648288,461,0
13650288,446,0
13652288,423,0
13654288,402,0
13656288,392,0
13658288,395,0
13660288,408,0
13662280,421,0
13664288,424,0
13666280,413,0
13668288,394,0
13670288,375,0
13672280,364,0
13674280,368,0
13676288,383,0
13678288,400,0
13680288,411,0
13682288,408,0
13684288,393,0
13686288,374,0
13688288,360,0
13690288,360,0
13692288,372,0
13694288,389,0
13696280,402,0
13698288,404,0
13700288,392,0
13702288,373,0
13704280,357,0
13706288,353,0
13708280,362,0
13710280,380,0
13712280,398,0
13714280,405,0
13716288,398,0
13718280,381,0
13720280,363,0
13722280,355,0
13724288,360,0
13726288,376,0
13728288,394,0
13730288,405,0
13732288,403,0
13734288,389,0
13736280,373,0
13738280,363,0
13740280,365,0
13742280,380,0
13744280,398,0
13746288,411,0
13748288,411,0
13750280,397,0
13752288,378,0
13754280,363,0
13756280,359,0
13758280,370,0
13760280,388,0
13762288,404,0
13764288,409,0
13766280,400,0
13768288,382,0
13770288,364,0
13772288,355,0
13774288,361,0
13776288,377,0
13778288,395,0
13780288,404,0
13782288,399,0
13784288,382,0
13786288,362,0
13788288,349,0
13790280,349,0
13792288,361,0
13794280,375,0
13796288,384,0
13798288,378,0
13800280,359,0
13802280,333,0
13804288,313,0
13806288,306,0
13808288,315,0
13810288,333,0
13812288,350,0
13814288,357,0
13816288,352,0
13818280,339,0
13820280,326,0
13822280,324,0
13824280,335,0
13826288,354,0
13828288,374,0
13830288,383,0
13832280,379,0
13834288,363,0
13836280,346,0
13838288,338,0
13840288,342,0
13842288,357,0
13844288,376,0
13846288,389,0
13848288,389,0
13850288,377,0
13852288,360,0
13854288,348,0
13856288,348,0
13858288,360,0
13860288,377,0
13862288,390,0
13864280,392,0
13866280,380,0
13868288,362,0
13870288,347,0
13872288,344,0
13874280,354,0
13876288,375,0
13878280,395,0
13880288,405,0
13882288,401,0
13884288,386,0
13886288,370,0
13888288,362,0
13890288,368,0
13892288,385,0
13894288,405,0
13896288,417,0
13898288,415,0
13900288,402,0
13902280,384,0
13904280,373,0
13906280,374,0
13908280,388,0
13910280,407,0
13912280,422,0
13914280,425,0
13916288,416,0
13918288,400,0
13920288,387,0
13922280,385,0
13924280,396,0
13926280,416,0
13928280,434,0
13930288,442,0
13932288,436,0
13934288,420,0
13936288,405,0
13938288,400,0
13940288,407,0
13942288,425,0
13944288,444,0
13946288,457,0
13948288,455,0
13950288,442,0
13952280,427,0
13954288,418,0
13956288,423,0
13958288,439,0
13960280,462,0
13962280,480,0
13964280,486,0
13966288,479,0
13968280,465,0
13970288,455,0
13972288,457,0
13974288,471,0
13976280,494,0
13978280,517,0
13980288,529,0
13982288,528,0
13984280,518,0
13986288,508,0
13988288,508,0
13990288,521,0
13992280,544,0
13994280,567,0
13996280,583,0
13998280,585,0
14000280,575,0
14002288,564,0
14004280,560,0
14006288,569,0
14008288,588,0
14010280,610,0
14012280,625,0
14014280,626,0
14016280,614,0
14018288,596,0
14020280,584,0
14022280,584,0
14024280,597,0
14026280,617,0
14028280,635,0
14030280,640,0
14032288,633,0
14034288,618,0
14036280,605,0
14038280,601,0
14040280,610,0
14042280,627,0
14044288,645,0
14046280,653,0
14048288,646,0
14050280,627,0
14052280,606,0
14054280,593,0
14056280,594,0
14058280,607,0
14060280,624,0
14062280,634,0
14064280,631,0
14066280,615,0
14068280,593,0
14070280,575,0
14072280,569,0
14074280,577,0
14076280,592,0
14078280,604,0
14080288,605,0
14082288,593,0
14084288,573,0
14086288,555,0
14088280,547,0
14090288,553,0
14092280,567,0
14094288,582,0
14096288,585,0
14098288,576,0
14100288,556,0
14102288,534,0
14104288,522,0
14106288,523,0
14108288,536,0
14110288,552,0
14112280,561,0
14114288,558,0
14116288,542,0
14118288,523,0
14120280,509,0
14122280,508,0
14124280,520,0
14126280,537,0
14128280,550,0
14130288,550,0
14132288,537,0
14134280,517,0
14136288,500,0
14138288,494,0
14140288,501,0
14142288,517,0
14144288,531,0
14146288,535,0
14148288,526,0
14150288,506,0
14152280,485,0
14154288,472,0
14156288,471,0
14158280,480,0
14160288,490,0
14162288,494,0
14164288,487,0
14166288,472,0
14168280,457,0
14170280,455,0
14172288,472,0
14174280,507,0
14176288,553,0
14178288,599,0
14180288,640,0
14182288,674,0
14184280,704,0
14186280,726,0
14188288,728,0
14190288,729,0
14192280,730,0
14194280,730,0
14196280,729,0
14198280,724,0
14200280,666,0
14202280,569,0
14204280,474,0
14206280,402,0
14208280,357,0
14210288,333,0
14212288,319,0
14214280,306,0
14216288,290,0
14218280,279,0
14220292,281,0
14222280,297,0
14224280,324,0
14226288,353,0
14228288,374,0
14230280,381,0
14232280,373,0
14234280,358,0
14236280,346,0
14238280,346,0
14240280,357,0
14242288,376,0
14244288,390,0
14246288,392,0
14248280,380,0
14250280,359,0
14252280,340,0
14254280,331,0
14256288,337,0
14258280,353,0
14260288,368,0
14262280,375,0
14264288,368,0
14266288,349,0
14268288,329,0
14270288,316,0
14272280,317,0
14274280,330,0
14276280,348,0
14278280,358,0
14280280,356,0
14282280,340,0
14284280,320,0
14286280,306,0
14288280,303,0
14290280,313,0
14292280,331,0
14294280,344,0
14296280,345,0
14298280,334,0
14300288,315,0
14302288,298,0
14304288,293,0
14306288,301,0
14308280,317,0
14310280,333,0
14312280,339,0
14314280,332,0
14316280,314,0
14318280,296,0
14320280,287,0
14322280,290,0
14324280,304,0
14326280,320,0
14328280,329,0
14330280,325,0
14332280,309,0
14334280,288,0
14336288,274,0
14338288,273,0
14340288,285,0
14342288,303,0
14344280,317,0
14346288,318,0
14348280,306,0
14350280,286,0
14352280,269,0
14354288,263,0
14356288,270,0
14358288,286,0
14360288,301,0
14362288,306,0
14364288,297,0
14366288,280,0
14368280,262,0
14370288,254,0
14372288,259,0
14374288,275,0
14376280,294,0
14378280,304,0
14380280,300,0
14382280,286,0
14384280,268,0
14386288,258,0
14388288,261,0
14390280,277,0
14392288,297,0
14394280,312,0
14396280,313,0
14398280,302,0
14400280,285,0
14402288,271,0
14404288,269,0
14406288,280,0
14408288,299,0
14410288,316,0
14412288,322,0
14414288,315,0
14416288,298,0
14418288,282,0
14420280,275,0
14422288,284,0
14424288,302,0
14426288,320,0
14428288,330,0
14430280,327,0
14432280,312,0
14434280,295,0
14436288,284,0
14438288,286,0
14440288,300,0
14442288,318,0
14444288,329,0
14446288,327,0
14448288,313,0
14450288,293,0
14452288,278,0
14454288,275,0
14456288,286,0
14458288,304,0
14460288,319,0
14462288,322,0
14464288,311,0
14466288,290,0
14468288,271,0
14470288,262,0
14472280,266,0
14474280,281,0
14476280,296,0
14478288,301,0
14480288,292,0
14482288,274,0
14484288,253,0
14486288,239,0
14488288,239,0
14490288,249,0
14492288,264,0
14494288,272,0
14496288,267,0
14498288,251,0
14500288,229,0
14502288,213,0
14504288,210,0
14506288,220,0
14508288,236,0
14510288,249,0
14512288,251,0
14514280,240,0
14516288,221,0
14518280,204,0
14520288,197,0
14522288,204,0
14524288,221,0
14526288,238,0
14528288,246,0
14530288,240,0
14532288,224,0
14534288,206,0
14536280,197,0
14538280,201,0
14540280,216,0
14542280,234,0
14544288,244,0
14546288,240,0
14548288,225,0
14550288,207,0
14552288,195,0
14554288,197,0
14556288,210,0
14558280,229,0
14560288,243,0
14562280,244,0
14564288,233,0
14566288,214,0
14568280,198,0
14570280,194,0
14572288,204,0
14574288,223,0
14576288,241,0
14578288,248,0
14580288,242,0
14582288,225,0
14584288,208,0
14586288,201,0
14588288,207,0
14590288,224,0
14592280,243,0
14594288,253,0
14596288,249,0
14598288,235,0
14600280,216,0
14602280,205,0
14604280,206,0
14606288,219,0
14608288,238,0
14610288,252,0
14612288,253,0
14614288,242,0
14616288,224,0
14618288,211,0
14620288,209,0
14622288,221,0
14624280,241,0
14626288,258,0
14628288,265,0
14630288,257,0
14632280,241,0
14634280,224,0
14636280,217,0
14638280,222,0
14640280,239,0
14642288,257,0
14644288,267,0
14646280,263,0
14648288,249,0
14650288,231,0
14652288,221,0
14654288,224,0
14656288,239,0
14658288,260,0
14660288,274,0
14662288,276,0
14664280,265,0
14666288,247,0
14668288,233,0
14670288,230,0
14672288,241,0
14674288,260,0
14676280,276,0
14678280,281,0
14680280,272,0
14682280,255,0
14684288,238,0
14686280,232,0
14688288,240,0
14690280,257,0
14692280,275,0
14694280,283,0
14696280,276,0
14698280,259,0
14700280,240,0
14702280,230,0
14704280,234,0
14706280,250,0
14708280,270,0
14710280,283,0
14712280,282,0
14714280,269,0
14716280,250,0
14718280,237,0
14720288,236,0
14722288,249,0
14724288,268,0
14726288,283,0
14728288,286,0
14730280,276,0
14732292,258,0
14734280,243,0
14736280,238,0
14738280,248,0
14740280,268,0
14742280,287,0
14744280,295,0
14746280,289,0
14748288,273,0
14750288,256,0
14752288,249,0
14754280,254,0
14756288,270,0
14758288,289,0
14760288,301,0
14762288,299,0
14764288,286,0
14766288,269,0
14768288,258,0
14770280,259,0
14772280,274,0
14774280,294,0
14776288,308,0
14778288,311,0
14780288,300,0
14782288,283,0
14784288,269,0
14786288,267,0
14788288,279,0
14790288,299,0
14792288,316,0
14794288,323,0
14796288,316,0
14798280,299,0
14800288,282,0
14802288,275,0
14804288,281,0
14806288,298,0
14808288,318,0
14810288,329,0
14812288,327,0
14814280,314,0
14816288,296,0
14818280,286,0
14820288,289,0
14822288,305,0
14824280,326,0
14826280,342,0
14828280,345,0
14830288,334,0
14832288,317,0
14834288,304,0
14836288,303,0
14838280,316,0
14840280,337,0
14842280,356,0
14844280,363,0
14846280,358,0
14848280,344,0
14850288,330,0
14852288,327,0
14854288,337,0
14856280,357,0
14858280,377,0
14860280,387,0
14862288,382,0
14864288,366,0
14866288,348,0
14868288,337,0
14870288,341,0
14872288,357,0
14874288,378,0
14876288,392,0
14878288,393,0
14880280,381,0
14882288,364,0
14884288,351,0
14886288,351,0
14888280,363,0
14890288,381,0
14892288,396,0
14894280,398,0
14896280,386,0
14898288,365,0
14900280,348,0
14902280,340,0
14904288,346,0
14906288,360,0
14908288,375,0
14910280,381,0
14912280,373,0
14914288,354,0
14916288,333,0
14918288,321,0
14920288,323,0
14922288,337,0
14924288,356,0
14926288,367,0
14928288,365,0
14930288,351,0
14932280,330,0
14934280,315,0
14936280,313,0
14938280,323,0
14940288,341,0
14942280,355,0
14944288,357,0
14946280,346,0
14948280,327,0
14950280,309,0
14952288,303,0
14954288,311,0
14956288,329,0
14958288,346,0
14960288,354,0
14962288,348,0
14964288,331,0
14966288,313,0
14968280,303,0
14970280,307,0
14972280,321,0
14974280,339,0
14976280,350,0
14978288,347,0
14980288,332,0
14982288,312,0
14984288,299,0
14986288,299,0
14988280,311,0
14990280,330,0
14992280,344,0
14994288,346,0
14996288,334,0
14998288,315,0
15000280,301,0
15002280,298,0
15004280,307,0
15006280,324,0
15008280,337,0
15010280,339,0
15012280,328,0
15014280,311,0
15016280,296,0
15018280,297,0
15020280,317,0
15022280,354,0
15024280,399,0
15026288,439,0
15028288,470,0
15030288,495,0
15032288,523,0
15034280,561,0
15036280,610,0
15038280,667,0
15040280,717,0
15042280,726,0
15044280,707,0
15046280,637,0
15048280,536,0
15050280,429,0
15052280,343,0
15054280,290,0
15056280,263,0
15058280,249,0
15060280,238,0
15062280,221,0
15064280,202,0
15066280,189,0
15068288,189,0
15070288,206,0
15072288,236,0
15074288,268,0
15076288,288,0
15078288,294,0
15080280,287,0
15082280,276,0
15084280,271,0
15086280,278,0
15088280,296,0
15090280,319,0
15092280,335,0
15094280,339,0
15096280,329,0
15098280,314,0
15100280,302,0
15102280,302,0
15104288,314,0
15106288,333,0
15108288,349,0
15110288,355,0
15112288,347,0
15114288,332,0
15116280,317,0
15118280,312,0
15120280,319,0
15122280,336,0
15124280,354,0
15126280,362,0
15128280,356,0
15130280,339,0
15132280,321,0
15134280,312,0
15136280,316,0
15138280,331,0
15140280,350,0
15142280,362,0
15144280,360,0
15146280,346,0
15148280,327,0
15150280,313,0
15152280,313,0
15154280,325,0
15156280,344,0
15158288,359,0
15160288,363,0
15162280,354,0
15164280,337,0
15166280,322,0
15168280,316,0
15170280,325,0
15172280,343,0
15174280,359,0
15176280,365,0
15178280,358,0
15180280,341,0
15182280,324,0
15184280,315,0
15186280,320,0
15188280,336,0
15190280,354,0
15192280,364,0
15194280,363,0
15196288,350,0
15198288,333,0
15200288,322,0
15202280,322,0
15204280,335,0
15206280,354,0
15208280,367,0
15210280,368,0
15212280,357,0
15214280,338,0
15216280,323,0
15218280,320,0
15220280,330,0
15222280,349,0
15224280,367,0
15226280,375,0
15228280,369,0
15230280,354,0
15232288,337,0
15234288,330,0
15236280,337,0
15238280,354,0
15240288,372,0
15242280,383,0
15244292,381,0
15246280,368,0
15248280,350,0
15250280,338,0
15252280,338,0
15254280,352,0
15256280,370,0
15258280,384,0
15260280,386,0
15262280,376,0
15264280,359,0
15266280,346,0
15268280,345,0
15270280,357,0
15272280,376,0
15274280,393,0
15276280,400,0
15278280,392,0
15280280,375,0
15282288,358,0
15284288,352,0
15286288,360,0
15288288,378,0
15290280,397,0
15292280,407,0
15294280,403,0
15296280,387,0
15298280,368,0
15300280,355,0
15302280,356,0
15304280,369,0
15306280,387,0
15308280,399,0
15310288,398,0
15312280,384,0
15314280,364,0
15316280,349,0
15318280,346,0
15320288,355,0
15322280,372,0
15324288,385,0
15326288,386,0
15328288,373,0
15330288,352,0
15332280,332,0
15334280,322,0
15336280,324,0
15338280,336,0
15340280,347,0
15342280,350,0
15344280,341,0
15346280,321,0
15348280,302,0
15350280,289,0
15352280,289,0
15354288,301,0
15356280,316,0
15358288,325,0
15360288,321,0
15362280,306,0
15364288,286,0
15366288,272,0
15368280,269,0
15370280,279,0
15372280,296,0
15374280,310,0
15376280,313,0
15378288,303,0
15380288,285,0
15382288,271,0
15384288,267,0
15386288,276,0
15388288,292,0
15390288,307,0
15392280,314,0
15394280,308,0
15396280,293,0
15398280,279,0
15400280,273,0
15402280,280,0
15404288,298,0
15406288,317,0
15408288,330,0
15410280,328,0
15412288,315,0
15414280,296,0
15416288,284,0
15418288,283,0
15420288,296,0
15422288,315,0
15424280,329,0
15426288,333,0
15428288,323,0
15430288,308,0
15432280,296,0
15434280,294,0
15436280,304,0
15438280,321,0
15440280,338,0
15442288,344,0
15444288,339,0
15446288,324,0
15448288,310,0
15450280,305,0
15452288,313,0
15454288,330,0
15456288,348,0
15458280,358,0
15460280,355,0
15462280,342,0
15464280,326,0
15466288,316,0
15468288,319,0
15470280,335,0
15472280,355,0
15474280,369,0
15476280,371,0
15478280,360,0
15480280,344,0
15482280,330,0
15484280,326,0
15486280,335,0
15488280,352,0
15490288,367,0
15492288,373,0
15494288,367,0
15496288,353,0
15498288,340,0
15500280,336,0
15502280,346,0
15504280,364,0
15506280,383,0
15508280,393,0
15510280,390,0
15512280,376,0
15514280,359,0
15516280,350,0
15518280,353,0
15520280,368,0
15522288,388,0
15524280,402,0
15526288,403,0
15528280,392,0
15530280,376,0
15532280,364,0
15534280,364,0
15536280,375,0
15538288,392,0
15540288,406,0
15542288,410,0
15544288,400,0
15546280,384,0
15548280,369,0
15550280,364,0
15552280,371,0
15554280,387,0
15556280,403,0
15558280,411,0
15560280,406,0
15562280,391,0
15564280,374,0
15566280,366,0
15568288,371,0
15570288,387,0
15572280,405,0
15574280,416,0
15576280,416,0
15578280,404,0
15580288,388,0
15582280,377,0
15584288,377,0
15586280,390,0
15588280,409,0
15590280,423,0
15592280,427,0
15594280,417,0
15596280,401,0
15598280,386,0
15600280,382,0
15602280,390,0
15604280,407,0
15606280,424,0
15608280,431,0
15610280,424,0
15612280,408,0
15614280,390,0
15616280,381,0
15618288,386,0
15620288,402,0
15622288,420,0
15624288,432,0
15626288,430,0
15628280,417,0
15630280,402,0
15632280,393,0
15634280,396,0
15636280,409,0
15638280,427,0
15640280,441,0
15642280,444,0
15644280,434,0
15646280,419,0
15648280,405,0
15650288,403,0
15652288,412,0
15654288,430,0
15656280,447,0
15658280,454,0
15660280,448,0
15662280,434,0
15664280,420,0
15666288,413,0
15668288,419,0
15670280,436,0
15672288,454,0
15674280,466,0
15676280,465,0
15678280,454,0
15680280,438,0
15682288,429,0
15684288,432,0
15686288,445,0
15688280,463,0
15690288,473,0
15692288,471,0
15694280,455,0
15696280,432,0
15698280,415,0
15700280,411,0
15702280,420,0
15704280,439,0
15706280,456,0
15708288,461,0
15710288,451,0
15712288,433,0
15714288,414,0
15716280,405,0
15718280,409,0
15720280,423,0
15722280,440,0
15724280,448,0
15726280,446,0
15728280,433,0
15730280,417,0
15732288,408,0
15734288,411,0
15736288,425,0
15738280,444,0
15740280,457,0
15742280,458,0
15744280,446,0
15746288,429,0
15748288,416,0
15750288,415,0
15752280,425,0
15754288,442,0
15756280,455,0
15758280,458,0
15760280,450,0
15762288,433,0
15764288,419,0
15766288,415,0
15768280,423,0
15770280,441,0
15772288,460,0
15774288,470,0
15776280,465,0
15778288,448,0
15780288,428,0
15782288,416,0
15784288,418,0
15786288,432,0
15788288,451,0
15790280,462,0
15792280,462,0
15794288,451,0
15796288,435,0
15798280,422,0
15800288,419,0
15802280,427,0
15804280,440,0
15806280,452,0
15808280,455,0
15810280,450,0
15812280,443,0
15814280,445,0
15816280,464,0
15818280,502,0
15820280,553,0
15822280,608,0
15824280,660,0
15826280,701,0
15828280,725,0
15830280,727,0
15832280,728,0
15834280,729,0
15836288,728,0
15838288,726,0
15840288,698,0
15842280,623,0
15844280,528,0
15846280,438,0
15848280,370,0
15850280,332,0
15852280,321,0
15854280,327,0
15856280,338,0
15858280,344,0
15860280,341,0
15862280,334,0
15864280,332,0
15866280,340,0
15868280,361,0
15870280,390,0
15872288,415,0
15874288,426,0
15876288,421,0
15878288,408,0
15880280,396,0
15882288,392,0
15884280,402,0
15886280,421,0
15888280,443,0
15890288,455,0
15892280,454,0
15894280,441,0
15896280,426,0
15898280,416,0
15900288,417,0
15902288,431,0
15904280,449,0
15906288,461,0
15908280,459,0
15910280,446,0
15912280,428,0
15914280,416,0
15916280,416,0
15918280,431,0
15920280,454,0
15922288,473,0
15924288,480,0
15926280,469,0
15928288,449,0
15930280,429,0
15932280,419,0
15934280,422,0
15936280,437,0
15938288,454,0
15940280,464,0
15942280,463,0
15944280,450,0
15946280,435,0
15948280,427,0
15950280,431,0
15952280,446,0
15954280,464,0
15956280,474,0
15958280,471,0
15960280,456,0
15962280,437,0
15964288,423,0
15966288,423,0
15968288,437,0
15970288,458,0
15972280,474,0
15974280,476,0
15976288,464,0
15978280,442,0
15980280,422,0
15982280,414,0
15984280,420,0
15986280,438,0
15988280,459,0
15990280,471,0
15992280,468,0
15994280,454,0
15996280,439,0
15998280,430,0
16000288,435,0
16002280,448,0
16004288,463,0
16006288,471,0
16008280,467,0
16010280,453,0
16012280,436,0
16014288,424,0
16016288,425,0
16018280,439,0
16020288,460,0
16022288,476,0
16024288,481,0
16026288,471,0
16028288,453,0
16030288,435,0
16032288,429,0
16034288,437,0
16036288,455,0
16038288,472,0
16040288,480,0
16042288,474,0
16044288,457,0
16046288,440,0
16048288,431,0
16050280,437,0
16052288,455,0
16054280,475,0
16056288,487,0
16058288,486,0
16060288,471,0
16062288,451,0
16064288,439,0
16066280,440,0
16068288,453,0
16070288,473,0
16072288,488,0
16074288,490,0
16076288,479,0
16078288,460,0
16080288,443,0
16082280,436,0
16084288,442,0
16086288,454,0
16088288,466,0
16090288,468,0
16092288,459,0
16094280,441,0
16096288,425,0
16098280,419,0
16100288,426,0
16102288,443,0
16104288,461,0
16106288,469,0
16108288,462,0
16110288,443,0
16112288,422,0
16114288,407,0
16116288,407,0
16118288,419,0
16120288,436,0
16122280,450,0
16124280,450,0
16126280,437,0
16128280,416,0
16130288,398,0
16132288,389,0
16134288,392,0
16136288,402,0
16138280,408,0
16140280,405,0
16142288,391,0
16144288,369,0
16146288,350,0
16148288,340,0
16150288,345,0
16152288,359,0
16154288,374,0
16156288,379,0
16158288,369,0
16160280,347,0
16162288,323,0
16164288,308,0
16166288,308,0
16168280,323,0
16170288,343,0
16172288,357,0
16174280,357,0
16176280,343,0
16178288,320,0
16180280,302,0
16182280,299,0
16184280,309,0
16186280,328,0
16188288,344,0
16190288,349,0
16192288,340,0
16194288,324,0
16196288,307,0
16198288,302,0
16200280,312,0
16202280,332,0
16204288,350,0
16206288,357,0
16208288,350,0
16210288,330,0
16212288,308,0
16214280,293,0
16216280,290,0
16218280,300,0
16220288,315,0
16222280,326,0
16224288,328,0
16226280,319,0
16228280,306,0
16230280,298,0
16232280,299,0
16234280,310,0
16236280,328,0
16238280,342,0
16240280,346,0
16242288,338,0
16244288,320,0
16246288,304,0
16248288,298,0
16250280,304,0
16252280,319,0
16254280,334,0
16256280,343,0
16258288,339,0
16260288,327,0
16262288,313,0
16264288,307,0
16266280,313,0
16268292,330,0
16270280,349,0
16272280,361,0
16274280,361,0
16276280,350,0
16278280,334,0
16280280,324,0
16282280,327,0
16284288,342,0
16286288,360,0
16288280,371,0
16290288,370,0
16292280,358,0
16294280,343,0
16296280,332,0
16298280,333,0
16300280,347,0
16302280,365,0
16304280,380,0
16306288,385,0
16308288,378,0
16310288,363,0
16312288,348,0
16314280,342,0
16316280,350,0
16318280,369,0
16320280,389,0
16322288,400,0
16324288,399,0
16326288,387,0
16328280,372,0
16330280,366,0
16332280,372,0
16334280,391,0
16336280,416,0
16338280,433,0
16340280,438,0
16342280,430,0
16344280,414,0
16346280,402,0
16348288,401,0
16350280,413,0
16352288,433,0
16354288,449,0
16356280,451,0
16358280,438,0
16360280,416,0
16362280,396,0
16364280,387,0
16366280,393,0
16368280,411,0
16370280,431,0
16372280,442,0
16374280,438,0
16376280,424,0
16378280,406,0
16380280,396,0
16382280,397,0
16384288,410,0
16386280,428,0
16388280,439,0
16390280,436,0
16392280,419,0
16394280,397,0
16396280,379,0
16398288,373,0
16400280,382,0
16402280,397,0
16404288,409,0
16406280,408,0
16408288,393,0
16410280,370,0
16412280,348,0
16414280,336,0
16416288,338,0
16418280,349,0
16420288,359,0
16422280,360,0
16424288,347,0
16426280,325,0
16428280,300,0
16430288,283,0
16432280,278,0
16434280,283,0
16436280,290,0
16438280,290,0
16440280,277,0
16442288,255,0
16444280,228,0
16446288,208,0
16448280,200,0
16450280,205,0
16452288,216,0
16454280,222,0
16456288,215,0
16458280,194,0
16460288,165,0
16462288,138,0
16464288,123,0
16466280,122,0
16468280,131,0
16470288,140,0
16472288,140,0
16474288,126,0
16476288,102,0
16478280,77,0
16480280,59,0
16482280,56,0
16484288,65,0
16486280,79,0
16488288,87,0
16490280,83,0
16492280,67,0
16494288,48,0
16496280,35,0
16498288,35,0
16500280,48,0
16502288,66,0
16504288,80,0
16506288,82,0
16508288,72,0
16510288,54,0
16512288,39,0
16514280,37,0
16516288,48,0
16518280,67,0
16520280,84,0
16522280,91,0
16524280,83,0
16526288,65,0
16528288,47,0
16530280,40,0
16532288,48,0
16534288,66,0
16536288,88,0
16538288,102,0
16540280,101,0
16542288,89,0
16544288,75,0
16546288,68,0
16548288,75,0
16550280,96,0
16552288,124,0
16554288,146,0
16556288,153,0
16558288,146,0
16560288,131,0
16562280,118,0
16564280,115,0
16566280,126,0
16568280,144,0
16570288,159,0
16572288,162,0
16574288,151,0
16576288,132,0
16578288,115,0
16580288,110,0
16582288,120,0
16584288,140,0
16586288,163,0
16588288,178,0
16590288,181,0
16592288,172,0
16594280,162,0
16596288,160,0
16598288,173,0
16600288,199,0
16602288,229,0
16604288,254,0
16606280,265,0
16608280,263,0
16610280,255,0
16612288,252,0
16614288,260,0
16616288,282,0
16618288,309,0
16620288,332,0
16622288,343,0
16624288,339,0
16626288,328,0
16628288,319,0
16630280,320,0
16632288,336,0
16634288,360,0
16636288,384,0
16638288,397,0
16640280,397,0
16642280,386,0
16644288,374,0
16646280,370,0
16648280,378,0
16650280,397,0
16652280,419,0
16654288,433,0
16656288,435,0
16658280,427,0
16660288,417,0
16662288,412,0
16664288,419,0
16666288,436,0
16668288,457,0
16670288,471,0
16672288,470,0
16674280,456,0
16676288,436,0
16678288,419,0
16680288,417,0
16682288,433,0
16684288,464,0
16686288,500,0
16688288,531,0
16690280,554,0
16692288,572,0
16694280,595,0
16696288,634,0
16698288,688,0
16700288,728,0
16702288,729,0
16704288,730,0
16706288,729,0
16708288,728,0
16710288,724,0
16712288,679,0
16714288,607,0
16716288,538,0
16718288,482,0
16720288,436,0
16722288,394,0
16724288,354,0
16726288,322,0
16728288,303,0
16730288,302,0
16732288,317,0
16734280,344,0
16736280,371,0
16738280,387,0
16740288,389,0
16742288,380,0
16744280,370,0
16746288,368,0
16748288,377,0
16750288,396,0
16752288,416,0
16754288,428,0
16756288,426,0
16758288,414,0
16760288,397,0
16762288,387,0
16764288,388,0
16766288,400,0
16768288,416,0
16770288,427,0
16772288,426,0
16774288,412,0
16776280,393,0
16778288,376,0
16780280,371,0
16782280,378,0
16784280,393,0
16786288,408,0
16788288,412,0
16790288,403,0
16792288,387,0
16794280,372,0
16796288,367,0
16798288,375,0
16800288,392,0
16802280,411,0
16804288,421,0
16806280,417,0
16808288,402,0
16810280,384,0
16812288,374,0
16814288,377,0
16816288,394,0
16818280,415,0
16820280,429,0
16822280,431,0
16824280,420,0
16826288,403,0
16828280,390,0
16830288,389,0
16832288,401,0
16834280,419,0
16836288,434,0
16838288,438,0
16840288,428,0
16842288,411,0
16844288,394,0
16846288,387,0
16848288,394,0
16850288,410,0
16852288,428,0
16854288,436,0
16856288,432,0
16858288,418,0
16860288,402,0
16862280,394,0
16864288,399,0
16866280,414,0
16868288,432,0
16870288,443,0
16872280,441,0
16874280,428,0
16876288,410,0
16878288,398,0
16880288,399,0
16882288,413,0
16884288,432,0
16886288,449,0
16888288,455,0
16890288,447,0
16892288,431,0
16894288,418,0
16896280,414,0
16898280,423,0
16900288,441,0
16902288,458,0
16904280,466,0
16906280,460,0
16908280,445,0
16910288,428,0
16912288,420,0
16914288,426,0
16916288,442,0
16918288,460,0
16920288,471,0
16922288,469,0
16924288,456,0
16926288,438,0
16928288,427,0
16930288,427,0
16932288,440,0
16934288,459,0
16936280,473,0
16938280,476,0
16940280,466,0
16942280,449,0
16944280,435,0
16946288,431,0
16948280,440,0
16950280,456,0
16952288,471,0
16954280,476,0
16956280,467,0
16958280,451,0
16960280,434,0
16962288,427,0
16964288,433,0
16966288,450,0
16968288,468,0
16970288,477,0
16972288,472,0
16974288,456,0
16976288,436,0
16978288,424,0
16980288,424,0
16982288,436,0
16984288,451,0
16986288,460,0
16988288,456,0
16990280,440,0
16992288,418,0
16994280,400,0
16996288,393,0
16998288,399,0
17000280,412,0
17002288,422,0
17004288,420,0
17006288,406,0
17008288,383,0
17010288,362,0
17012288,350,0
17014288,351,0
17016288,364,0
17018280,378,0
17020280,384,0
17022280,377,0
17024280,360,0
17026288,340,0
17028288,328,0
17030288,330,0
17032288,341,0
17034280,356,0
17036292,366,0
17038280,363,0
17040280,349,0
17042288,329,0
17044280,315,0
17046288,313,0
17048288,324,0
17050288,341,0
17052280,355,0
17054288,357,0
17056288,347,0
17058280,330,0
17060288,314,0
17062288,309,0
17064288,317,0
17066288,335,0
17068288,352,0
17070288,360,0
17072288,355,0
17074280,342,0
17076288,327,0
17078280,320,0
17080288,325,0
17082288,342,0
17084288,360,0
17086288,371,0
17088288,370,0
17090288,357,0
17092288,340,0
17094288,329,0
17096288,329,0
17098288,343,0
17100288,361,0
17102280,377,0
17104288,380,0
17106288,370,0
17108288,353,0
17110280,337,0
17112280,333,0
17114280,341,0
17116288,358,0
17118288,374,0
17120288,381,0
17122280,375,0
17124288,359,0
17126288,343,0
17128288,334,0
17130288,338,0
17132288,353,0
17134288,370,0
17136288,379,0
17138288,377,0
17140288,363,0
17142288,347,0
17144288,336,0
17146288,337,0
17148288,351,0
17150280,369,0
17152280,382,0
17154288,383,0
17156288,372,0
17158288,355,0
17160288,341,0
17162280,338,0
17164280,347,0
17166288,365,0
17168288,380,0
17170288,385,0
17172288,377,0
17174288,361,0
17176280,345,0
17178280,338,0
17180288,344,0
17182288,360,0
17184280,377,0
17186288,387,0
17188288,384,0
17190288,371,0
17192280,354,0
17194280,344,0
17196280,346,0
17198280,360,0
17200280,378,0
17202288,389,0
17204288,388,0
17206280,376,0
17208280,360,0
17210288,347,0
17212288,347,0
17214288,359,0
17216288,377,0
17218280,393,0
17220288,398,0
17222288,390,0
17224288,374,0
17226288,358,0
17228288,352,0
17230288,358,0
17232288,375,0
17234288,393,0
17236288,402,0
17238288,398,0
17240280,383,0
17242280,366,0
17244288,356,0
17246280,359,0
17248288,373,0
17250280,390,0
17252280,402,0
17254288,401,0
17256280,389,0
17258280,371,0
17260288,358,0
17262288,357,0
17264288,369,0
17266288,387,0
17268288,401,0
17270288,405,0
17272288,397,0
17274280,381,0
17276280,367,0
17278280,363,0
17280280,371,0
17282288,388,0
17284288,404,0
17286288,412,0
17288280,406,0
17290280,391,0
17292280,376,0
17294288,369,0
17296288,374,0
17298288,389,0
17300288,406,0
17302288,417,0
17304288,415,0
17306288,402,0
17308288,385,0
17310288,374,0
17312288,375,0
17314288,387,0
17316288,405,0
17318288,419,0
17320280,420,0
17322288,409,0
17324288,393,0
17326280,379,0
17328288,375,0
17330280,385,0
17332288,403,0
17334280,421,0
17336288,429,0
17338288,422,0
17340288,407,0
17342288,391,0
17344280,383,0
17346288,387,0
17348288,401,0
17350288,418,0
17352280,428,0
17354280,426,0
17356280,414,0
17358280,398,0
17360280,388,0
17362280,390,0
17364280,404,0
17366280,424,0
17368280,440,0
17370288,444,0
17372288,434,0
17374280,418,0
17376288,404,0
17378280,399,0
17380280,408,0
17382288,424,0
17384280,438,0
17386280,443,0
17388280,434,0
17390280,418,0
17392280,403,0
17394280,396,0
17396280,404,0
17398280,422,0
17400280,442,0
17402280,453,0
17404280,452,0
17406280,439,0
17408280,421,0
17410288,409,0
17412280,408,0
17414288,419,0
17416280,434,0
17418280,443,0
17420280,442,0
17422288,428,0
17424288,409,0
17426288,394,0
17428288,391,0
17430288,401,0
17432288,416,0
17434288,429,0
17436288,431,0
17438288,420,0
17440280,402,0
17442288,384,0
17444288,377,0
17446288,382,0
17448288,397,0
17450288,412,0
17452288,419,0
17454288,413,0
17456288,398,0
17458280,381,0
17460288,371,0
17462280,374,0
17464288,388,0
17466288,406,0
17468288,417,0
17470288,415,0
17472288,403,0
17474288,385,0
17476288,372,0
17478288,371,0
17480280,382,0
17482288,400,0
17484288,415,0
